T[Â°C]	350nm [counts / mm]	S.D.
19.99929	6946.038	33.82881
20.05328	6946.745	33.39701
20.10727	6930.543	27.71549
20.16126	6930.574	35.17217
20.21525	6929.913	21.87403
20.26924	6919.275	28.62182
20.32323	6920.765	25.81897
20.37722	6912.607	25.84904
20.43121	6906.079	34.94184
20.4852	6908.24	21.58822
20.53919	6890.658	23.92691
20.59318	6888.603	27.00138
20.64717	6875.902	25.61163
20.70116	6875.762	31.29203
20.75515	6863.487	29.60486
20.80914	6861.743	24.03711
20.86313	6857.547	33.42624
20.91712	6844.809	30.3532
20.97111	6838.767	28.13765
21.0251	6840.854	32.91279
21.07909	6829.887	28.94621
21.13308	6830.354	26.67837
21.18707	6830.274	24.9253
21.24106	6819.295	24.10455
21.29505	6815.064	31.88144
21.34904	6812.376	26.62451
21.40303	6804.332	30.20385
21.45702	6793.897	27.23576
21.51101	6792.814	38.41194
21.565	6788.443	29.41676
21.61899	6780.713	36.62857
21.67298	6774.362	32.67391
21.72697	6774.917	26.40989
21.78096	6757.545	26.04301
21.83495	6755.735	18.87696
21.88894	6754.428	23.17153
21.94293	6750.259	21.66513
21.99692	6744.144	23.31877
22.05091	6734.051	24.32651
22.1049	6738.83	29.0612
22.1589	6722.232	29.09286
22.21288	6725.079	29.9158
22.26687	6720.006	27.68256
22.32087	6708.143	25.12371
22.37486	6714.016	28.71735
22.42885	6702.074	34.77864
22.48284	6695.493	32.68283
22.53683	6693.662	27.05586
22.59082	6683.583	29.71384
22.64481	6680.45	39.26412
22.6988	6671.016	33.38808
22.75279	6669.79	33.89685
22.80678	6665.348	29.7925
22.86077	6658.483	27.44707
22.91476	6650.88	30.66436
22.96875	6643.836	30.57342
23.02274	6641.124	35.14776
23.07673	6636.921	29.08747
23.13072	6630.344	34.02098
23.18471	6628.14	37.53131
23.2387	6622.158	31.89003
23.29269	6618.649	31.14833
23.34668	6612.519	30.52503
23.40067	6611.137	35.41358
23.45466	6607.592	33.81794
23.50865	6598.939	31.4065
23.56264	6589.787	35.40245
23.61663	6583.241	34.98306
23.67062	6580.065	32.42002
23.72461	6574.64	30.4958
23.7786	6566.046	26.93065
23.83259	6559.793	28.06828
23.88658	6559.231	29.86977
23.94057	6554.182	26.67175
23.99456	6550.02	25.4568
24.04855	6545.462	26.60435
24.10254	6536.415	28.18886
24.15653	6537.038	27.25562
24.21052	6527.399	21.00472
24.26451	6524.827	18.10926
24.3185	6516.939	24.15779
24.37249	6511.695	26.3329
24.42648	6511.317	27.7549
24.48047	6500.614	27.90102
24.53446	6497.914	32.24255
24.58845	6492.702	34.69103
24.64244	6485.606	30.29821
24.69643	6481.422	24.62107
24.75042	6477.858	30.18169
24.80441	6469.437	30.40779
24.8584	6463.542	28.53452
24.9124	6462.788	25.8011
24.96638	6447.916	22.1855
25.02037	6449.821	24.23773
25.07437	6443.469	33.86372
25.12836	6432.816	32.07402
25.18235	6438.988	26.02574
25.23634	6427.085	28.56662
25.29033	6421.777	25.63436
25.34432	6417.967	25.82836
25.39831	6412.998	33.94063
25.4523	6403.727	26.47994
25.50629	6405.043	26.41636
25.56028	6401.18	28.06069
25.61427	6391.058	18.91116
25.66826	6386.93	21.07122
25.72225	6378.066	23.75912
25.77624	6373.546	21.70823
25.83023	6367.921	15.01833
25.88422	6363.915	19.84077
25.93821	6365.604	22.08556
25.9922	6357.455	20.59731
26.04619	6344.883	19.35346
26.10018	6336.826	24.11311
26.15417	6346.534	32.0853
26.20816	6340.341	26.8313
26.26215	6324.518	30.21387
26.31614	6322.879	26.90006
26.37013	6324.232	25.07453
26.42412	6309.493	25.76057
26.47811	6307.643	28.93866
26.5321	6300.578	28.3869
26.58609	6299.61	33.2446
26.64008	6289.697	37.58978
26.69407	6284.271	28.15653
26.74806	6285.127	30.04684
26.80205	6281.762	26.03934
26.85604	6276.409	29.78213
26.91003	6271.899	28.30961
26.96402	6264.529	23.82827
27.01801	6262.141	25.44604
27.072	6255.149	20.128
27.12599	6243.354	27.18834
27.17998	6239.676	34.23106
27.23397	6236.921	26.15014
27.28796	6230.031	26.48332
27.34195	6221.666	27.92809
27.39594	6219.149	23.0311
27.44993	6218.126	22.85929
27.50392	6210.752	20.74462
27.55791	6207.635	24.04542
27.6119	6205.89	29.38288
27.6659	6199.013	27.4608
27.71988	6193.22	25.169
27.77387	6187.121	24.9501
27.82787	6182.066	20.82865
27.88186	6177.541	15.94587
27.93585	6166.381	18.88184
27.98984	6160.092	20.34817
28.04383	6161.193	22.26747
28.09782	6156.132	24.90152
28.15181	6146.924	25.80775
28.2058	6141.091	28.40674
28.25979	6136.657	24.64822
28.31378	6130.912	28.57228
28.36777	6133.666	27.75047
28.42176	6125.309	24.16411
28.47575	6115.058	24.93388
28.52974	6111.321	21.33794
28.58373	6108.803	19.06185
28.63772	6104.734	27.45154
28.69171	6098.602	27.19093
28.7457	6094.445	29.44869
28.79969	6088.371	25.69281
28.85368	6078.256	30.12207
28.90767	6077.178	28.76597
28.96166	6069.004	27.6464
29.01565	6068.316	21.63991
29.06964	6069.185	22.25284
29.12363	6057.677	14.97422
29.17762	6054.66	13.61737
29.23161	6047.611	16.74607
29.2856	6044.625	19.53828
29.33959	6029.521	21.9334
29.39358	6033.906	19.79277
29.44757	6032.408	17.21418
29.50156	6026.483	15.87027
29.55555	6020.032	24.50282
29.60954	6013.951	17.67439
29.66353	6009.319	23.87842
29.71752	6005.172	21.59989
29.77151	6004.344	23.75788
29.8255	5993.66	27.10464
29.87949	5993.443	23.51118
29.93348	5986.704	25.70983
29.98747	5982.295	23.04973
30.04146	5973.154	26.28614
30.09545	5967.845	28.49596
30.14944	5962.747	23.81658
30.20343	5952.955	25.7266
30.25742	5954.411	25.45202
30.31141	5944.233	26.23841
30.3654	5939.919	32.45889
30.4194	5939.908	14.73986
30.47338	5935.4	26.76678
30.52737	5933.093	26.92099
30.58137	5926.341	23.09558
30.63535	5916.468	25.48688
30.68935	5910.557	20.90817
30.74334	5911.887	24.56006
30.79733	5901.396	22.0178
30.85132	5896.692	20.0474
30.90531	5890.542	26.02457
30.9593	5882.751	23.41455
31.01329	5883.232	19.88434
31.06728	5879.547	22.86496
31.12127	5871.489	21.90074
31.17526	5870.341	26.62789
31.22925	5866.718	21.74969
31.28324	5856.346	14.6341
31.33723	5855.646	21.3493
31.39122	5851.122	20.21375
31.44521	5845.385	21.5542
31.4992	5840.405	25.83327
31.55319	5834.183	20.84758
31.60718	5824.876	23.98227
31.66117	5819.169	24.54916
31.71516	5821.654	23.12421
31.76915	5815.558	28.12537
31.82314	5806.355	26.33846
31.87713	5800.05	29.49145
31.93112	5791.57	29.82832
31.98511	5790.211	21.8428
32.0391	5787.085	23.86211
32.09309	5782.137	24.63331
32.14708	5775.655	27.8642
32.20107	5770.898	23.02305
32.25506	5763.724	23.33351
32.30905	5762.915	19.53463
32.36304	5755.332	22.56108
32.41703	5750.275	18.73189
32.47102	5749.335	24.63451
32.52501	5746.608	22.6932
32.579	5739.938	32.38023
32.63299	5735.486	24.15526
32.68699	5732.415	22.07453
32.74097	5720.65	23.94901
32.79496	5712.841	20.71075
32.84895	5704.428	19.46641
32.90294	5705.13	13.84534
32.95694	5700.313	18.85962
33.01093	5699.205	23.55208
33.06491	5695.884	20.68823
33.1189	5688.636	21.35629
33.17289	5678.932	23.56723
33.22689	5670.58	15.02561
33.28088	5667.562	16.43892
33.33487	5670.348	13.27705
33.38885	5666.594	22.37891
33.44284	5657.959	21.78091
33.49684	5655.735	21.26838
33.55083	5651.432	17.67463
33.60482	5640.192	19.07846
33.65881	5639.521	19.97073
33.7128	5629.187	22.89738
33.76679	5625.278	16.83973
33.82078	5621.436	20.30406
33.87477	5620.917	26.99303
33.92876	5606.393	20.66866
33.98275	5610.187	23.90182
34.03674	5601.423	30.76206
34.09073	5595.847	32.55873
34.14472	5592.766	22.04248
34.19871	5587.739	18.01517
34.2527	5587.923	19.76468
34.30669	5583.052	19.65712
34.36068	5571.011	23.544
34.41467	5568.831	26.7201
34.46866	5561.032	21.47424
34.52265	5560.908	25.39282
34.57664	5557.819	25.67278
34.63063	5552.29	18.88169
34.68462	5547.554	20.44385
34.73861	5541.133	21.24096
34.7926	5533.333	24.0866
34.84659	5529.998	18.87737
34.90058	5524.429	15.44524
34.95457	5519.108	16.48771
35.00856	5516.867	21.08201
35.06255	5516.569	22.08182
35.11654	5508.735	19.67926
35.17053	5503.607	19.43387
35.22452	5499.2	15.33872
35.27851	5493.376	11.98967
35.3325	5488.49	17.41587
35.38649	5481.724	19.52599
35.44048	5476.417	18.72382
35.49447	5473.875	19.05902
35.54846	5464.124	19.18859
35.60246	5454.354	19.92854
35.65644	5452.22	18.0332
35.71043	5450.437	15.1368
35.76442	5445.833	17.37678
35.81841	5439.92	19.68826
35.87241	5433.135	16.41098
35.9264	5430.91	21.81809
35.98038	5431.833	23.88806
36.03437	5423.889	21.22515
36.08837	5424.368	23.56525
36.14236	5414.564	23.54443
36.19635	5408.388	18.0532
36.25034	5404.383	19.00132
36.30433	5404.378	17.92453
36.35832	5389.15	12.42317
36.41231	5385.249	11.64852
36.4663	5378.268	17.14282
36.52029	5380.451	12.59903
36.57428	5379.539	17.72574
36.62827	5373.234	17.3552
36.68226	5360.747	13.07016
36.73625	5358.253	19.29469
36.79024	5356.337	18.3727
36.84423	5348.424	21.42497
36.89822	5347.783	19.60175
36.95221	5342.313	21.09675
37.0062	5338.348	19.05683
37.06019	5333.666	15.35991
37.11418	5326.824	16.02411
37.16817	5324.685	19.21368
37.22216	5316.555	21.8554
37.27615	5311.963	18.82337
37.33014	5303.327	23.39358
37.38413	5303.284	32.09639
37.43812	5295.555	24.36396
37.49211	5294.425	31.53292
37.5461	5284.525	24.29352
37.60009	5287.709	22.51691
37.65408	5280.846	30.3112
37.70807	5274.7	20.07235
37.76206	5274.057	22.09562
37.81605	5265.914	24.46332
37.87004	5260.304	22.79384
37.92403	5256.749	18.4797
37.97802	5251.186	15.56838
38.03201	5242.259	24.97038
38.086	5243.46	22.39642
38.13999	5242.255	12.31231
38.19398	5225.418	21.08044
38.24797	5228.8	18.67079
38.30196	5220.353	14.99473
38.35595	5220.37	16.63943
38.40994	5211.911	25.40261
38.46394	5209.412	22.11105
38.51793	5206.908	16.39271
38.57191	5205.131	15.78561
38.6259	5198.727	19.51654
38.67989	5190.583	16.05722
38.73389	5184.462	15.14917
38.78788	5182.563	15.20335
38.84187	5175.604	18.53997
38.89585	5172.968	19.15577
38.94984	5161.748	14.63277
39.00384	5160.316	13.50268
39.05783	5155.795	10.83314
39.11182	5150.214	18.807
39.16581	5144.627	21.03489
39.2198	5144.52	15.94191
39.27379	5140.58	19.55225
39.32778	5136.688	19.92174
39.38177	5128.748	14.4514
39.43576	5124	15.62417
39.48975	5122.228	18.03262
39.54374	5116.867	19.16072
39.59773	5109.94	22.70025
39.65172	5104.076	21.67515
39.70571	5103.914	15.85856
39.7597	5101.33	12.79815
39.81369	5093.571	14.66904
39.86768	5087.956	17.25255
39.92167	5079.476	14.00491
39.97566	5071.628	9.737531
40.02965	5073.098	13.83482
40.08364	5060.89	12.87306
40.13763	5061.158	14.13497
40.19162	5057.798	11.14469
40.24561	5054.705	12.639
40.2996	5049.235	19.55712
40.35359	5052.877	10.93685
40.40758	5042.412	17.31879
40.46157	5036.272	15.03034
40.51556	5033.35	20.97182
40.56955	5034.675	23.63097
40.62354	5025	19.28145
40.67753	5022.741	17.7627
40.73152	5011.208	18.36793
40.78551	5013.089	14.92366
40.8395	5006.837	17.53532
40.89349	5004.297	19.91141
40.94748	4991.646	9.753524
41.00147	4993.569	14.33597
41.05546	4983.717	19.59525
41.10946	4984.506	21.00038
41.16344	4978.109	23.81163
41.21743	4975.011	19.24216
41.27142	4965.529	16.73406
41.32542	4968.741	27.40361
41.37941	4950.305	16.7417
41.4334	4953.661	12.65942
41.48738	4948.805	29.59979
41.54137	4948.653	24.3974
41.59537	4946.063	16.51619
41.64936	4944.327	12.56975
41.70335	4929.454	18.66175
41.75734	4930.466	22.23568
41.81133	4921.838	19.73799
41.86532	4921.232	16.65146
41.91931	4914.113	19.22405
41.9733	4913.966	12.95795
42.02729	4904.701	18.80209
42.08128	4903.175	15.05624
42.13527	4897.383	15.09963
42.18926	4896.8	13.80059
42.24325	4890.297	18.14878
42.29724	4884.837	16.56839
42.35123	4874.988	16.92589
42.40522	4878.288	16.41992
42.45921	4868.247	16.02206
42.5132	4867.736	12.08196
42.56719	4861.855	18.94521
42.62118	4857.995	22.08271
42.67517	4854.078	20.08855
42.72916	4850.984	25.46788
42.78315	4843.824	17.39543
42.83714	4839.969	16.56642
42.89113	4833.378	16.82831
42.94512	4830.914	18.47193
42.99911	4830.073	19.34489
43.0531	4821.428	13.79531
43.10709	4811.9	17.77535
43.16108	4807.84	17.3832
43.21507	4803.733	16.62777
43.26906	4801.129	21.04531
43.32305	4797.467	21.49743
43.37704	4793.908	17.22143
43.43103	4788.527	18.3646
43.48502	4782.358	17.01415
43.53901	4780.705	14.86566
43.593	4774.665	22.56052
43.64699	4771.508	18.81528
43.70098	4766.567	16.77452
43.75497	4763.332	22.58619
43.80896	4756.313	17.44999
43.86295	4754.505	15.97921
43.91694	4748.632	8.286587
43.97094	4746.331	5.851983
44.02493	4738.618	11.12741
44.07891	4735.844	15.38743
44.1329	4726.244	12.72425
44.18689	4723.531	9.917407
44.24089	4716.511	18.56933
44.29488	4720.386	19.80661
44.34887	4714.533	15.72854
44.40285	4706.002	18.48186
44.45684	4708.183	11.44888
44.51084	4704.824	16.64681
44.56483	4696.139	12.80608
44.61882	4696.926	7.349514
44.67281	4690.015	13.4929
44.7268	4683.782	7.995404
44.78079	4679.936	19.43897
44.83478	4678.742	19.47416
44.88877	4670.889	13.78736
44.94276	4671.048	21.3492
44.99675	4657.138	19.02184
45.05074	4662.605	22.35837
45.10473	4657.217	21.23461
45.15872	4652.694	20.78335
45.21271	4639.825	18.47075
45.2667	4638.845	13.88709
45.32069	4633.075	18.17483
45.37468	4633.856	24.20763
45.42867	4626.184	23.98394
45.48266	4624.218	15.64935
45.53665	4620.838	13.65001
45.59064	4617.874	10.93731
45.64463	4611.895	19.67352
45.69862	4607.75	10.28377
45.75261	4600.888	14.89622
45.8066	4601.503	13.35634
45.86059	4593.581	14.89406
45.91458	4589.198	18.04341
45.96857	4579.716	9.622316
46.02256	4584.542	11.45558
46.07655	4573.664	23.36089
46.13054	4574.199	17.95956
46.18453	4564.508	14.87599
46.23852	4565.226	12.46555
46.29251	4555.904	10.89088
46.3465	4555.752	11.79263
46.40049	4549.965	6.199831
46.45448	4543.831	11.21028
46.50847	4541.069	15.86613
46.56247	4539.259	12.01591
46.61646	4528.276	14.56447
46.67044	4531.502	13.82008
46.72443	4525.388	13.01895
46.77842	4521.576	14.46064
46.83242	4516.631	16.44943
46.88641	4511.68	17.51866
46.9404	4503.603	18.61961
46.99438	4500.877	17.55664
47.04837	4500.319	14.70784
47.10237	4497.774	14.39429
47.15636	4491.285	10.27317
47.21035	4486.938	13.38935
47.26434	4481.65	17.92535
47.31833	4477.206	14.48074
47.37232	4473.327	13.83978
47.42631	4467.48	13.48826
47.4803	4463.891	11.80457
47.53429	4457.415	10.94675
47.58828	4453.64	12.56532
47.64227	4450.031	10.66398
47.69626	4448.084	10.56055
47.75025	4438.279	10.84273
47.80424	4439.115	13.79575
47.85823	4440.545	18.13139
47.91222	4438.39	12.49699
47.96621	4427.611	11.27485
48.0202	4425.487	16.09078
48.07419	4420.272	16.4535
48.12818	4418.499	19.05026
48.18217	4406.012	16.15997
48.23616	4403.901	11.7051
48.29015	4398.962	9.739117
48.34414	4397.13	6.82576
48.39813	4389.384	13.80778
48.45212	4387.825	6.118386
48.50611	4380.764	9.742869
48.5601	4380.03	15.31262
48.61409	4371.496	15.4802
48.66808	4367.329	17.42722
48.72207	4358.959	19.37442
48.77606	4363.896	17.32022
48.83005	4358.259	18.06802
48.88404	4359.309	19.71019
48.93803	4350.14	22.39702
48.99202	4347.268	21.45767
49.04601	4342.206	8.038347
49.1	4339.592	20.57644
49.15399	4328.862	19.19325
49.20798	4328.996	13.78194
49.26197	4324.914	22.4373
49.31596	4325.888	8.954111
49.36995	4315.988	14.41196
49.42394	4314.447	15.52533
49.47794	4306.711	17.30266
49.53193	4306.921	20.55578
49.58591	4295.229	16.55965
49.6399	4296.717	12.92033
49.6939	4287.555	13.05268
49.74789	4293.231	10.50824
49.80188	4283.246	11.4002
49.85587	4283.559	14.71313
49.90985	4275.866	14.78938
49.96385	4277.187	13.48606
50.01784	4265.136	18.44123
50.07183	4263.804	13.64494
50.12582	4255.188	16.88722
50.17981	4257.595	14.0996
50.2338	4253.261	12.30864
50.28779	4250.81	8.234012
50.34178	4241.38	8.365621
50.39577	4239.878	9.837923
50.44976	4231.821	16.19496
50.50375	4232.25	17.40414
50.55774	4223.939	13.25618
50.61173	4221.481	10.49379
50.66572	4216.176	14.09973
50.71971	4212.514	16.21594
50.7737	4210.304	10.87721
50.82769	4206.561	12.86896
50.88168	4204.443	15.46278
50.93567	4200.085	13.24845
50.98966	4195.693	14.11375
51.04365	4191.787	11.06065
51.09764	4191.869	15.35484
51.15163	4182.819	16.88028
51.20562	4181.619	13.57082
51.25961	4177.59	15.0667
51.3136	4171.886	12.3203
51.36759	4163.594	11.71005
51.42158	4164.12	16.04756
51.47557	4154.598	11.94876
51.52956	4156.727	12.34571
51.58355	4144.214	8.644992
51.63754	4143.259	13.10167
51.69153	4137.299	9.57746
51.74552	4142.976	9.582815
51.79951	4130.764	8.697899
51.8535	4134.976	16.84447
51.90749	4128.21	16.15312
51.96148	4124.436	13.27045
52.01547	4120.778	12.7155
52.06947	4119.085	14.30822
52.12346	4110.73	13.40553
52.17744	4109.104	12.97957
52.23143	4102.312	10.44454
52.28542	4102.326	6.372207
52.33942	4090.381	7.969042
52.39341	4094.523	11.50355
52.4474	4083.464	6.044014
52.50138	4081.812	12.41603
52.55537	4072.956	11.67639
52.60937	4071.885	13.94861
52.66336	4062.366	10.52921
52.71735	4068.911	14.85744
52.77134	4059.584	12.45004
52.82533	4060.736	16.22352
52.87932	4054.835	14.09562
52.93331	4048.395	12.49806
52.9873	4043.431	20.22898
53.04129	4046.175	12.89972
53.09528	4040.444	16.02592
53.14927	4036.493	8.69025
53.20326	4033.19	16.13387
53.25725	4028.068	8.312305
53.31124	4015.148	8.04572
53.36523	4015.737	13.80996
53.41922	4013.36	14.55054
53.47321	4011.537	11.55903
53.5272	4004.407	19.12648
53.58119	4002.206	13.06424
53.63518	3994.637	14.7084
53.68917	3995.698	12.40904
53.74316	3989.24	14.42173
53.79715	3986.493	13.48013
53.85114	3985.076	15.7034
53.90513	3983.185	13.9034
53.95912	3971.407	10.17843
54.01311	3973.446	9.264773
54.0671	3965.664	15.76803
54.12109	3962.784	12.87858
54.17508	3958.625	9.546399
54.22907	3955.471	9.422549
54.28306	3952.647	13.23528
54.33705	3952.183	14.27381
54.39104	3941.811	15.96994
54.44503	3936.869	15.77405
54.49902	3933.783	13.01179
54.55301	3933.107	8.3664
54.607	3927.155	11.96337
54.66099	3921.326	13.77931
54.71498	3920.351	9.09671
54.76897	3915.924	10.62649
54.82296	3914.005	12.62376
54.87695	3910.076	13.20287
54.93095	3905.009	13.72797
54.98494	3902.764	11.55796
55.03893	3901.429	11.86953
55.09291	3894.084	10.33544
55.1469	3891.645	11.56199
55.2009	3886.258	15.07541
55.25489	3885.058	11.23849
55.30888	3876.718	13.75707
55.36287	3872.757	14.6271
55.41685	3869.018	9.327734
55.47085	3869.214	10.0607
55.52484	3864.287	7.521671
55.57883	3867.132	9.805616
55.63282	3848.009	8.96419
55.68681	3853.176	10.13793
55.7408	3844.764	8.499613
55.79479	3843.849	6.725805
55.84878	3840.556	13.12056
55.90277	3837.22	14.17789
55.95676	3832.371	13.2253
56.01075	3833.714	14.65137
56.06474	3821.083	16.31055
56.11873	3824.813	14.93357
56.17272	3813.025	12.71187
56.22671	3815.688	7.336732
56.2807	3806.5	9.992214
56.33469	3812.002	9.672221
56.38868	3800.025	12.94987
56.44267	3800.29	13.71992
56.49666	3790.156	16.30152
56.55065	3797.37	15.51377
56.60464	3787.128	13.63567
56.65863	3784.458	13.38328
56.71262	3774.958	16.19647
56.76661	3778.169	16.52172
56.8206	3760.827	13.44911
56.87459	3769.425	15.70481
56.92858	3757.317	11.91044
56.98257	3765.91	11.92004
57.03656	3756.649	14.06342
57.09055	3756.34	18.51432
57.14454	3746.727	14.72457
57.19853	3746.858	11.9004
57.25252	3741.164	11.9554
57.30651	3742.179	12.77416
57.3605	3736.01	9.206957
57.41449	3734.969	12.30036
57.46848	3725.589	15.41784
57.52247	3723.933	11.87794
57.57647	3711.619	14.24187
57.63046	3715.506	16.4875
57.68444	3710.43	14.30155
57.73843	3709.043	7.864468
57.79242	3708.41	6.202792
57.84642	3708.906	7.527744
57.90041	3696.863	12.88835
57.9544	3693.92	16.33401
58.00838	3690.392	12.66036
58.06238	3687.601	8.003936
58.11637	3685.876	8.937428
58.17036	3675.436	8.76174
58.22435	3673.203	8.111452
58.27834	3670.496	9.787116
58.33233	3671.545	15.99298
58.38632	3667.35	13.6062
58.44031	3663.983	10.87482
58.4943	3654.854	9.429584
58.54829	3658.578	19.68659
58.60228	3648.758	14.93398
58.65627	3650.073	8.670813
58.71026	3639.919	9.866897
58.76425	3638.3	12.96461
58.81824	3630.562	15.49241
58.87223	3635.325	8.795785
58.92622	3627.071	13.26229
58.98021	3631.562	10.74512
59.0342	3622.167	11.36981
59.08819	3623.322	6.984753
59.14218	3612.762	8.967545
59.19617	3610.541	16.29615
59.25016	3605.671	12.40495
59.30415	3606.213	14.89573
59.35814	3596.391	7.250074
59.41213	3603.52	8.905613
59.46612	3585.734	10.10541
59.52011	3591.22	13.42153
59.5741	3583.869	11.3354
59.62809	3587.948	6.100587
59.68208	3574.574	7.505541
59.73607	3577.047	6.053139
59.79006	3568.817	12.5757
59.84405	3568.738	10.33312
59.89804	3562.463	10.73635
59.95203	3557.959	7.99914
60.00602	3550.468	7.486701
60.06001	3551.34	9.203629
60.114	3550.301	10.22573
60.168	3547.51	12.34857
60.22198	3548.888	13.54577
60.27597	3545.657	7.797137
60.32996	3536.887	7.016717
60.38395	3531.999	10.03064
60.43795	3536.807	8.433555
60.49194	3527.904	8.611641
60.54593	3530.783	10.01749
60.59991	3519.938	8.086404
60.6539	3523.447	12.25047
60.7079	3512.579	11.62382
60.76189	3520.008	10.3965
60.81588	3502.144	11.5123
60.86987	3508.395	10.47529
60.92385	3497.391	11.59777
60.97785	3502.379	14.28991
61.03184	3491.926	13.635
61.08583	3492.554	11.40607
61.13982	3485.371	13.32626
61.19381	3487.704	10.13825
61.2478	3478.211	11.33189
61.30179	3480.894	5.157173
61.35578	3472.62	9.20938
61.40977	3475.799	7.194115
61.46376	3473.02	13.52172
61.51775	3468.528	17.16396
61.57174	3461.058	11.60232
61.62573	3460.094	8.620143
61.67972	3455.584	9.605566
61.73371	3451.731	11.79468
61.7877	3447.361	12.39558
61.84169	3447.863	8.451122
61.89568	3442.218	8.034332
61.94967	3439.389	8.780915
62.00366	3438.018	8.02629
62.05765	3434.931	10.68165
62.11164	3434.909	13.03239
62.16563	3429.882	13.24525
62.21962	3429.972	10.69853
62.27361	3424.731	10.04115
62.3276	3421.782	11.92004
62.38159	3417.645	10.18641
62.43558	3419.478	10.14153
62.48957	3416.347	12.80048
62.54356	3413.79	9.134983
62.59755	3407.128	12.10011
62.65154	3407.845	14.37342
62.70553	3405.201	8.158177
62.75952	3408.394	9.327066
62.81351	3397.098	9.561538
62.8675	3395.174	12.52703
62.92149	3389.109	8.324321
62.97548	3396.446	13.08732
63.02947	3386.775	10.42187
63.08347	3389.213	14.23344
63.13745	3379.02	12.39905
63.19144	3382.795	11.26278
63.24543	3368.412	7.172687
63.29943	3375.867	10.10085
63.35342	3368.739	10.99947
63.40741	3373.892	9.822235
63.4614	3364.076	15.41036
63.51538	3367.32	13.46107
63.56938	3358.76	6.782208
63.62337	3365.702	10.27992
63.67736	3351.927	12.48928
63.73135	3356.063	4.075978
63.78534	3352.005	6.848105
63.83933	3353.521	12.19751
63.89332	3347.702	9.408156
63.94731	3349.981	6.453722
64.0013	3344.224	6.21551
64.05529	3348.303	12.77978
64.10928	3338.318	10.42767
64.16327	3343.038	9.778218
64.21726	3332.265	11.41935
64.27125	3338.376	9.108147
64.32524	3331.811	10.02381
64.37923	3336.975	12.81061
64.43322	3331.934	11.96099
64.48721	3329.932	12.82009
64.5412	3326.77	9.07378
64.59519	3329.469	8.823673
64.64918	3323.588	14.64535
64.70317	3325.428	11.92911
64.75716	3319.437	12.9296
64.81115	3321.505	15.56906
64.86514	3318.1	15.89364
64.91913	3320.293	16.73365
64.97312	3320.083	17.37127
65.02711	3321.719	14.5952
65.0811	3324.032	14.08129
65.13509	3321.637	16.42469
65.18908	3322.268	16.58475
65.24307	3318.477	16.44322
65.29707	3320.653	17.02966
65.35105	3319.171	13.07732
65.40504	3319.606	11.98519
65.45903	3320.7	15.53464
65.51302	3322.188	16.99474
65.56702	3318.683	14.17009
65.621	3324.57	14.56951
65.675	3321.744	13.81005
65.72898	3326.301	10.2659
65.78297	3321.802	13.98545
65.83697	3327.962	21.0201
65.89095	3324.055	14.61837
65.94495	3328.396	17.16805
65.99893	3323.24	15.11371
66.05293	3334.061	11.05556
66.10692	3329.466	19.79536
66.1609	3340.098	11.86505
66.2149	3334.641	18.28828
66.26888	3345.147	16.32905
66.32288	3335.446	10.43286
66.37687	3349.591	17.74238
66.43085	3343.501	10.87925
66.48485	3351.35	13.38544
66.53883	3351.33	16.06345
66.59283	3363.455	10.12234
66.64682	3359.298	13.71095
66.70081	3368.163	20.67955
66.7548	3365.965	25.97772
66.80878	3374.519	20.04378
66.86278	3378.016	14.60678
66.91677	3387.475	19.90854
66.97076	3382.655	22.36525
67.02475	3394.984	21.86172
67.07874	3396.039	18.67076
67.13273	3403.718	20.78373
67.18672	3403.068	21.89861
67.24071	3421.385	22.51704
67.2947	3416.473	15.80249
67.34869	3430.135	18.28324
67.40268	3435.301	24.11384
67.45667	3447.235	17.94288
67.51066	3451.402	20.27972
67.56465	3461.782	20.80253
67.61864	3466.633	19.80939
67.67263	3481.134	17.30216
67.72662	3487.393	23.1663
67.78061	3499.73	22.26531
67.8346	3504.282	24.34929
67.8886	3523.136	23.7339
67.94258	3530.257	20.8482
67.99657	3543.194	25.32627
68.05056	3553.612	29.98259
68.10455	3565.041	26.46505
68.15855	3574.966	21.43665
68.21253	3591.727	21.55237
68.26653	3601.98	22.95369
68.32051	3618.082	24.40858
68.3745	3632.03	23.40974
68.4285	3646.953	20.01717
68.48248	3665.192	22.12659
68.53648	3678.593	25.53145
68.59046	3694.197	25.85047
68.64445	3711.333	30.26116
68.69845	3732.524	32.36276
68.75243	3749.087	31.5508
68.80643	3776.057	33.08098
68.86041	3787.64	30.76081
68.91441	3804.595	31.10452
68.9684	3821.491	35.52593
69.02238	3844.875	34.4077
69.07638	3858.627	31.34563
69.13036	3891.057	30.20883
69.18436	3912.295	34.68083
69.23835	3939.094	33.8157
69.29234	3961.116	38.50609
69.34633	3990.143	40.32785
69.40031	4007.515	41.04387
69.45431	4044.931	39.2633
69.5083	4061.792	37.7478
69.56229	4099.065	40.13565
69.61628	4108.897	42.40966
69.67027	4152.961	42.82132
69.72426	4170.176	43.97655
69.77825	4220.54	40.06232
69.83224	4235.467	49.23595
69.88623	4281.101	50.30629
69.94022	4304.163	49.00932
69.99421	4346.536	56.07172
70.0482	4370.283	47.01203
70.10219	4415.714	50.95666
70.15618	4445.766	52.73897
70.21017	4492.139	54.26242
70.26416	4522.475	61.70956
70.31815	4572.898	55.56948
70.37214	4600.48	53.43987
70.42613	4655.585	58.32974
70.48012	4687.599	58.7908
70.53411	4738.246	63.00792
70.5881	4767.388	63.84019
70.64209	4825.185	63.38382
70.69608	4870.681	67.35365
70.75008	4920.063	60.96368
70.80406	4957.768	61.02277
70.85806	5008.559	64.01809
70.91204	5051.591	63.55853
70.96603	5099.539	61.45496
71.02003	5141.281	56.63621
71.07401	5193.141	51.7319
71.12801	5222.841	57.70911
71.18199	5269.044	60.75274
71.23598	5306.197	57.03838
71.28998	5349.701	56.77955
71.34396	5394.671	58.61303
71.39796	5440.488	58.48697
71.45194	5483.833	63.09854
71.50594	5530.927	69.1276
71.55993	5577.405	69.38117
71.61391	5619.982	69.60053
71.66791	5673.297	69.46885
71.72189	5715.519	69.31541
71.77589	5773.896	71.19609
71.82988	5814.305	65.4257
71.88387	5864.798	68.92122
71.93786	5911.181	67.6028
71.99184	5962.693	59.23782
72.04584	5993.815	61.50419
72.09983	6054.044	65.62733
72.15382	6081.892	58.20089
72.20781	6136.984	58.70384
72.2618	6165.689	61.13015
72.31579	6214.881	55.42804
72.36978	6237.959	60.31676
72.42377	6292.906	54.72722
72.47776	6310.541	60.66569
72.53175	6358.629	54.66874
72.58574	6367.536	54.16074
72.63973	6418.243	52.40604
72.69372	6434.479	59.77972
72.74771	6484.466	57.30634
72.8017	6488.355	39.53319
72.85569	6532.172	42.86702
72.90968	6548.043	44.93245
72.96367	6581.168	40.31194
73.01766	6575.34	38.98126
73.07165	6619.661	38.03392
73.12564	6623.638	36.59958
73.17963	6663.045	32.03822
73.23362	6658.298	37.4641
73.28761	6698.693	40.17019
73.3416	6703.577	43.57164
73.39559	6729.297	36.42907
73.44958	6731.699	45.66483
73.50357	6758.625	46.26857
73.55756	6760.226	40.85838
73.61155	6786.176	35.09384
73.66554	6799.1	32.20387
73.71954	6813.847	35.24891
73.77352	6818.05	36.28996
73.82751	6826.419	35.83178
73.8815	6832.245	31.80899
73.93549	6845.703	30.50716
73.98949	6860.005	34.59628
74.04347	6873.398	38.39622
74.09747	6877.077	37.19526
74.15146	6884.177	33.38687
74.20544	6896.596	34.07894
74.25944	6898.889	41.9669
74.31342	6914.66	42.75102
74.36742	6921.164	39.0682
74.42141	6927	38.47647
74.4754	6922.47	31.07446
74.52939	6949.324	30.77601
74.58337	6940.978	32.38805
74.63737	6963.79	31.6812
74.69136	6956.335	37.5194
74.74535	6975.47	36.2226
74.79934	6968.221	44.6846
74.85332	6985.915	47.413
74.90732	6974.092	27.42442
74.96131	6991.025	32.74567
75.0153	6975.836	32.76508
75.06929	7005.973	27.61844
75.12328	7000.602	34.94581
75.17727	7012.77	37.44205
75.23126	6997.053	40.33023
75.28525	7023.328	45.22711
75.33924	7006.341	43.36532
75.39323	7031.938	32.61462
75.44722	7013.013	31.15348
75.50121	7036.852	29.6177
75.5552	7023.225	31.94317
75.60919	7040.593	28.87311
75.66318	7035.686	34.96241
75.71717	7048.163	38.1253
75.77116	7033.488	33.59085
75.82515	7058.056	31.04156
75.87914	7032.444	34.42558
75.93313	7054.36	30.34241
75.98712	7038.386	38.4942
76.04111	7062.138	34.53392
76.0951	7052.475	27.91429
76.14909	7068.63	29.45582
76.20308	7057.189	34.61178
76.25707	7070.947	28.67087
76.31107	7065.928	27.254
76.36505	7065.413	26.97792
76.41904	7065.959	22.16593
76.47303	7064.909	22.98041
76.52702	7075.359	29.83829
76.58102	7069.674	36.06555
76.635	7073.474	34.21795
76.689	7077.262	31.24537
76.74298	7092.217	26.53994
76.79697	7080.243	25.70516
76.85097	7086.112	31.3532
76.90495	7072.254	39.12422
76.95895	7087.732	40.07813
77.01293	7073.666	29.80046
77.06693	7101.251	29.66489
77.12092	7064.767	33.25375
77.1749	7085.591	34.52123
77.2289	7070.231	35.53812
77.28288	7091.556	32.78687
77.33688	7068.513	26.36844
77.39087	7083.311	26.53743
77.44485	7074.347	26.75817
77.49885	7081.576	25.53693
77.55284	7067.935	34.1419
77.60683	7095.014	29.77382
77.66082	7074.685	33.5207
77.71481	7087.847	34.92065
77.7688	7060.703	33.0664
77.82279	7082.881	41.63564
77.87678	7057.538	34.66348
77.93077	7083.523	29.31158
77.98476	7061.141	33.25315
78.03875	7072.823	29.8588
78.09274	7058.739	24.90066
78.14673	7073.044	28.62643
78.20072	7059.648	23.65746
78.25471	7065.137	26.40055
78.3087	7055.95	28.46017
78.36269	7066.391	21.87598
78.41668	7059.632	20.26364
78.47067	7062.724	20.60213
78.52466	7063.669	20.89463
78.57865	7055.022	24.0691
78.63264	7056.442	28.45019
78.68663	7061.684	25.13637
78.74062	7064.995	23.73072
78.79461	7052.319	24.41313
78.8486	7060.038	20.09316
78.9026	7052.761	28.59117
78.95658	7053.215	29.40103
79.01057	7039.008	26.75083
79.06456	7058.206	31.21492
79.11855	7038.244	23.65994
79.17255	7051.237	29.91235
79.22653	7032.688	29.87466
79.28053	7048.772	30.21364
79.33451	7031.786	27.82809
79.3885	7050.593	23.69529
79.4425	7012.483	32.32298
79.49648	7041.429	28.731
79.55048	7014.893	31.03424
79.60446	7036.784	26.79656
79.65845	7003.775	35.76528
79.71245	7029.953	30.39615
79.76643	6996.294	27.44802
79.82043	7026.604	35.52727
79.87441	7003.833	37.28742
79.92841	7017.744	30.40431
79.9824	7005.008	35.47789
80.03638	7029.409	33.838
80.09038	7006.689	37.01624
80.14436	7010.256	38.61409
80.19836	7005.744	37.64761
80.25235	7005.73	37.94888
80.30634	7000.746	34.00943
80.36033	7005.477	28.38489
80.41431	7013.465	28.82758
80.46831	7002.578	26.64505
80.5223	6996.97	24.10189
80.57629	6989.718	26.71289
80.63028	6999.59	30.36632
80.68427	6990.572	32.45166
80.73826	7008.904	25.26982
80.79225	6987.641	32.47906
80.84624	7006.803	24.70099
80.90023	6983.262	27.04911
80.95422	7002.112	26.60132
81.00821	6991.596	31.11997
81.0622	7000.051	22.4922
81.11619	6977.607	26.62826
81.17018	6998.096	36.41426
81.22417	6976.31	38.65514
81.27816	6995.233	31.89694
81.33215	6980.385	26.58929
81.38614	6997.094	25.39618
81.44013	6965.991	26.7485
81.49413	6992.199	24.2853
81.54811	6969.45	28.81174
81.6021	6989.76	26.77355
81.65609	6961.891	27.75145
81.71008	6990.693	27.13931
81.76408	6951.069	39.7875
81.81806	6984.771	23.60942
81.87206	6963.386	27.05727
81.92604	6980.74	29.5199
81.98003	6960.687	36.75599
82.03403	6978.513	24.48768
82.08801	6971.389	21.80458
82.14201	6980.703	21.29929
82.19599	6969.351	26.63433
82.24998	6967.646	30.82056
82.30398	6960.102	29.69835
82.35796	6963.761	29.72564
82.41196	6966.589	29.57304
82.46594	6964.465	30.00118
82.51994	6967.975	32.28008
82.57393	6961.52	33.8664
82.62791	6974.148	31.6235
82.68191	6965.063	31.82109
82.73589	6981.491	25.61563
82.78989	6954.415	31.70742
82.84388	6973.707	22.5036
82.89787	6953.915	33.77639
82.95186	6979.726	26.44762
83.00584	6951.712	27.78206
83.05984	6968.233	40.23933
83.11383	6954.614	27.04289
83.16782	6983.563	31.76916
83.22181	6940.913	29.88441
83.27579	6970.992	25.59764
83.32979	6948.52	25.70716
83.38378	6969.791	23.52196
83.43777	6944.049	31.63637
83.49176	6967.823	30.87347
83.54575	6936.766	28.36403
83.59974	6963.656	31.17895
83.65373	6936.242	30.37925
83.70772	6955.367	27.00623
83.76171	6927.498	28.76357
83.8157	6957.117	25.81313
83.86969	6921.764	20.92565
83.92368	6951.07	28.34733
83.97767	6924.085	23.74218
84.03166	6946.924	20.86845
84.08565	6922.972	23.20748
84.13964	6944.469	21.59609
84.19363	6923.388	27.62201
84.24762	6927.926	21.79747
84.30161	6923.916	19.15304
84.35561	6925.215	20.95264
84.40959	6916.349	26.40604
84.46358	6918.686	22.15793
84.51757	6920.508	18.04478
84.57156	6914.72	18.88144
84.62556	6912.987	18.76027
84.67954	6901.681	23.69521
84.73354	6904.653	22.92329
84.78752	6895.861	22.87674
84.84151	6905.548	24.87578
84.89551	6895.387	24.66777
84.94949	6904.229	21.23416
85.00349	6887.478	25.24487
85.05747	6905.684	14.22636
85.11147	6875.107	25.83435
85.16546	6891.591	18.58729
85.21944	6861.966	26.88569
85.27344	6877.071	26.8829
85.32742	6851.457	24.73505
85.38142	6871.209	24.96424
85.43541	6840.77	24.76655
85.4894	6860.186	21.41703
85.54339	6826.808	21.53668
85.59737	6853.098	24.64842
85.65137	6816.468	23.81401
85.70536	6843.419	17.98167
85.75935	6806.149	25.1059
85.81334	6825.444	25.96348
85.86732	6798.057	22.89487
85.92132	6811.697	22.10807
85.97531	6781.39	28.55891
86.0293	6804.453	27.13342
86.08329	6775.6	22.47435
86.13728	6793.557	21.63243
86.19127	6752.279	18.79702
86.24526	6775.951	24.05781
86.29925	6746.138	29.2529
86.35324	6754.363	23.06234
86.40723	6726.263	22.11505
86.46122	6749.4	20.03677
86.51521	6718.259	29.5869
86.5692	6731.633	16.59511
86.62319	6692.652	23.56393
86.67718	6711.684	25.27309
86.73117	6691.234	35.76131
86.78516	6709.732	24.04778
86.83915	6675.293	25.27611
86.89314	6691.831	18.16707
86.94713	6656.17	16.84173
87.00112	6668.586	12.14185
87.05511	6647.208	15.97159
87.1091	6649.89	19.61418
87.16309	6629.073	18.78998
87.21708	6641.438	15.6163
87.27107	6624.345	20.33617
87.32507	6629.447	10.48451
87.37905	6615.065	15.5763
87.43304	6611.417	24.62304
87.48703	6597.328	26.31333
87.54102	6597.499	17.26995
87.59502	6586.721	14.48573
87.649	6581.486	15.92767
87.703	6566.815	13.83241
87.75699	6565.656	17.74268
87.81097	6564.672	18.26652
87.86497	6551.085	13.94908
87.91895	6538.511	13.8555
87.97295	6533.158	14.49206
88.02694	6537.763	17.72109
88.08092	6519.47	16.97221
88.13492	6514.713	16.87754
88.1889	6500.588	23.87767
88.2429	6492.675	26.10036
88.29689	6477.158	17.18885
88.35088	6484.49	14.86563
88.40487	6464.012	19.46806
88.45885	6480.821	21.74099
88.51285	6450.536	15.85277
88.56684	6462.51	15.67535
88.62083	6430.803	18.54085
88.67482	6438.672	21.65781
88.72881	6416.922	23.12881
88.7828	6427.57	17.57304
88.83679	6405.042	15.91157
88.89078	6425.877	16.26631
88.94477	6380.188	15.33136
88.99876	6395.242	20.49224
89.05275	6356.879	19.36138
89.10674	6382.489	27.31874
89.16073	6349.434	20.79686
89.21472	6366.45	13.79403
89.26871	6330.967	13.5396
89.3227	6353.437	20.3641
89.37669	6315.787	16.10845
89.43068	6347.873	16.23653
89.48467	6305.066	23.9432
89.53866	6321.168	19.78625
89.59265	6281.266	11.44659
89.64664	6311.013	12.45411
89.70063	6266.86	16.7465
89.75462	6290.679	14.09694
89.80861	6244.643	18.79775
89.8626	6277.6	22.48652
89.9166	6236.455	17.77209
89.97058	6256.345	19.22971
90.02457	6217.21	12.28749
90.07856	6243.396	9.686193
90.13255	6206.779	7.529165
90.18655	6224.095	9.719703
90.24053	6178.191	16.537
90.29453	6202.049	12.62152
90.34851	6172.728	22.72801
90.4025	6201.612	11.72999
90.4565	6158.138	24.31419
90.51048	6168.224	20.33448
90.56448	6147.789	26.87506
90.61846	6155.715	17.51257
90.67245	6123.627	10.16429
90.72645	6141.982	11.6886
90.78043	6115.718	11.3449
90.83443	6124.473	9.759792
90.88841	6108.735	15.87491
90.94241	6113.722	12.04365
90.9964	6091.081	14.71226
91.05038	6093.534	13.09232
91.10438	6078.463	16.32725
91.15837	6082.127	10.94112
91.21236	6066.73	8.830172
91.26635	6062.628	8.917262
91.32034	6045.256	15.58297
91.37433	6043.051	18.78029
91.42832	6034.454	15.37577
91.48231	6029.818	13.72424
91.5363	6023.591	13.66309
91.59029	6012.682	16.12992
91.64428	6003.458	15.29449
91.69827	5986.157	15.93813
91.75226	5982.164	15.56672
91.80625	5975.712	12.86688
91.86024	5985.23	15.08901
91.91423	5968.279	16.07087
91.96822	5966.549	16.01693
92.02221	5939.369	15.19774
92.0762	5946.352	11.86953
92.13019	5926.129	14.89474
92.18418	5933.712	11.27345
92.23817	5909.375	15.9046
92.29216	5922.312	20.12032
92.34615	5898.584	20.4403
92.40014	5916.036	21.41135
92.45413	5880.014	14.99367
92.50813	5901.277	16.04662
92.56211	5867.845	20.80269
92.6161	5883.018	14.92114
92.67009	5851.421	17.87727
92.72408	5863.988	9.901098
92.77808	5834.639	16.85781
92.83206	5859.554	17.43605
92.88605	5815.126	16.71331
92.94004	5838.34	10.25922
92.99403	5809.578	18.69323
93.04803	5824.033	11.377
93.10201	5776.163	17.24127
93.15601	5797.829	16.68298
93.20999	5762.428	17.21322
93.26398	5778.093	15.93861
93.31798	5753.384	18.69315
93.37196	5774.252	17.29841
93.42596	5737.091	16.3923
93.47994	5753.475	6.368055
93.53394	5728.077	16.88773
93.58793	5739.43	11.78806
93.64191	5695.609	8.959251
93.69591	5717.147	12.05342
93.74989	5684.213	15.05698
93.80389	5701.268	10.48033
93.85788	5672.465	12.86587
93.91187	5695.061	9.593736
93.96586	5653.442	13.85514
94.01984	5677.961	10.44145
94.07384	5642.137	11.65631
94.12783	5671.494	8.309455
94.18182	5627.298	16.26833
94.23581	5655.826	10.01937
94.28979	5620.662	12.21551
94.34379	5634.806	6.603227
94.39778	5606.307	7.256496
94.45177	5593.35	9.71211
94.50576	5605.894	13.9585
94.55975	5577.049	14.41443
94.61374	5584.333	15.12935
94.66773	5582.075	18.26904
94.72172	5566.297	13.19915
94.77571	5553.029	14.97989
94.8297	5537.693	7.078714
94.88369	5534.301	12.04024
94.93768	5543.246	10.4871
94.99167	5537.389	19.71116
