T[Â°C]	350nm [counts / mm]	S.D.
20.00043	2777.589	
20.00071	2774.698	
20.00541	2781.354	
20.00809	2781.261	
20.02009	2781.433	
20.02561	2778.938	
20.04547	2770.438	
20.05314	2772.751	
20.08067	2776.804	
20.09048	2788.921	
20.12328	2770.774	
20.13513	2776.377	
20.17372	2776.092	
20.18767	2774.694	
20.2318	2770.822	
20.24781	2770.672	
20.29898	2772.017	
20.31775	2765.143	
20.37164	2764.102	
20.39128	2767.976	
20.45117	2761.127	
20.4719	2767.407	
20.53764	2768.824	
20.55992	2763.904	
20.6286	2753.093	
20.65262	2752.836	
20.72403	2758.493	
20.7485	2753.073	
20.82408	2748.585	
20.84914	2746.686	
20.92762	2749.569	
20.95445	2761.484	
21.03487	2742.258	
21.06204	2740.05	
21.14189	2739.182	
21.16867	2740.457	
21.25067	2734.158	
21.27849	2726.156	
21.35924	2730.42	
21.38668	2732.566	
21.47109	2722.472	
21.49836	2724.564	
21.58104	2719.125	
21.60741	2721.968	
21.68785	2712.07	
21.71514	2708.764	
21.79974	2707.921	
21.82694	2704.152	
21.90823	2702.917	
21.9359	2708.161	
22.01832	2697.781	
22.04611	2696.683	
22.12926	2700.88	
22.15647	2700.827	
22.23677	2688.831	
22.26396	2695.991	
22.34601	2693.581	
22.37345	2686.545	
22.4559	2683.579	
22.48332	2686.257	
22.5653	2678.76	
22.5923	2677.532	
22.67573	2669.599	
22.70297	2673.07	
22.78487	2676.146	
22.81269	2675.241	
22.89554	2670.887	
22.92257	2668.333	
23.0035	2658.779	
23.03124	2658.088	
23.11296	2650.534	
23.13971	2652.027	
23.21992	2654.384	
23.24755	2653.518	
23.33237	2644.224	
23.36001	2648.711	
23.44364	2645.656	
23.4704	2644.869	
23.55122	2644.295	
23.5789	2635.8	
23.66008	2639.646	
23.68747	2635.482	
23.77123	2637.673	
23.79869	2631.518	
23.88026	2627.995	
23.90733	2632.153	
23.98975	2629.72	
24.01745	2632.236	
24.09945	2627.7	
24.12639	2620.889	
24.20875	2621.828	
24.23678	2616.887	
24.31961	2622.127	
24.34651	2616.995	
24.42662	2614.472	
24.45436	2609.638	
24.53621	2606.634	
24.56355	2607.006	
24.64772	2599.717	
24.6749	2594.776	
24.75488	2596.383	
24.78285	2596.484	
24.86673	2589.992	
24.89385	2588.3	
24.97526	2584.461	
25.00179	2586.292	
25.08385	2588.056	
25.11211	2586.111	
25.1958	2581.594	
25.22338	2585.705	
25.30495	2581.758	
25.33233	2569.971	
25.41332	2572.995	
25.44035	2568.526	
25.52307	2565.483	
25.55046	2563.833	
25.63206	2562.523	
25.65946	2561.107	
25.74194	2556.953	
25.76905	2560.176	
25.84937	2557.106	
25.87654	2550.504	
25.96084	2547.562	
25.99047	2551.029	
26.0709	2546.129	
26.09838	2545.146	
26.17832	2545.382	
26.20544	2543.91	
26.28843	2539.003	
26.31669	2529.151	
26.39969	2534.277	
26.42623	2538.828	
26.50707	2536.878	
26.53429	2522.055	
26.61722	2526.393	
26.6449	2521.885	
26.72963	2516.571	
26.75689	2519.716	
26.83448	2520.111	
26.86159	2517.981	
26.94641	2517.364	
26.97404	2507.13	
27.05643	2507.318	
27.08364	2507.783	
27.16522	2502.438	
27.19373	2501.231	
27.27467	2508.945	
27.30189	2506.978	
27.38459	2500.404	
27.412	2495.848	
27.49335	2493.297	
27.52103	2484.88	
27.60209	2488.829	
27.62888	2490.456	
27.71256	2485.058	
27.73976	2483.429	
27.82032	2475.975	
27.84757	2480.339	
27.9313	2481.484	
27.95863	2465.503	
28.03953	2476.484	
28.06796	2468.327	
28.15264	2469.421	
28.17937	2468.383	
28.25864	2463.755	
28.28565	2470.808	
28.3686	2461.084	
28.39604	2460.368	
28.47945	2456.877	
28.50718	2459.234	
28.58893	2451.605	
28.6162	2450.493	
28.69695	2444.656	
28.72383	2442.944	
28.80717	2446.245	
28.83539	2441.521	
28.91663	2440.299	
28.94329	2433.566	
29.02618	2434.716	
29.05439	2435.191	
29.13675	2434.432	
29.164	2434.551	
29.24547	2423.507	
29.27271	2426.861	
29.35311	2427.417	
29.38157	2422.379	
29.46411	2412.417	
29.49169	2420.117	
29.57273	2416.199	
29.59983	2423.02	
29.68242	2400.7	
29.7103	2405.288	
29.79196	2406.371	
29.81892	2405.021	
29.90223	2394.54	
29.92961	2403.094	
30.01094	2400.904	
30.0383	2392.894	
30.12028	2398.943	
30.14766	2399.915	
30.22858	2392.752	
30.25524	2387.839	
30.33828	2384.575	
30.36821	2374.511	
30.44911	2386.669	
30.47725	2380.882	
30.55825	2371.898	
30.58509	2380.421	
30.66851	2377.267	
30.69625	2373.419	
30.77824	2368.261	
30.80509	2370.163	
30.8878	2369.746	
30.91554	2364.772	
30.9954	2362.293	
31.02364	2359.447	
31.10497	2352.51	
31.13193	2359.673	
31.21588	2356.643	
31.24373	2350.735	
31.32448	2354.256	
31.35256	2359.304	
31.43445	2355.067	
31.46172	2345.261	
31.54262	2338.843	
31.56991	2339.495	
31.65368	2342.513	
31.68135	2344.83	
31.76146	2340.016	
31.7898	2340.464	
31.87185	2324.388	
31.89893	2328.443	
31.98276	2332.599	
32.01	2324.317	
32.09073	2320.307	
32.11811	2324.504	
32.19938	2314.424	
32.22732	2320.134	
32.30891	2318.898	
32.33691	2319.951	
32.41899	2314.481	
32.44598	2305.83	
32.52856	2311.044	
32.5554	2315.015	
32.63868	2310.666	
32.66592	2297.244	
32.74603	2302.113	
32.77346	2296.803	
32.85632	2298.072	
32.88377	2293.835	
32.9677	2302.911	
32.99509	2284.659	
33.07659	2287.657	
33.10362	2287.167	
33.18278	2285.074	
33.21038	2290.954	
33.29505	2285.229	
33.32353	2282.596	
33.40382	2277.935	
33.43146	2278.515	
33.51529	2273.032	
33.5417	2261.183	
33.62156	2268.375	
33.65005	2265.637	
33.7331	2265.146	
33.76002	2261.151	
33.84192	2258.195	
33.87002	2253.913	
33.95189	2254.396	
33.97907	2242.636	
34.06123	2247.584	
34.08857	2244.881	
34.17005	2239.906	
34.19742	2250.259	
34.27908	2240.997	
34.30661	2250.758	
34.38966	2234.334	
34.41657	2234.449	
34.49899	2235.761	
34.52552	2239.494	
34.60723	2234.929	
34.63491	2226.651	
34.71867	2228.472	
34.74626	2224.811	
34.82623	2233.921	
34.85582	2221.626	
34.93623	2221.472	
34.96328	2222.672	
35.04652	2222.805	
35.07435	2216.986	
35.1549	2210.205	
35.18298	2213.657	
35.26319	2213.571	
35.29018	2209.284	
35.37583	2211.537	
35.40305	2212.192	
35.48242	2206.293	
35.51012	2198.958	
35.59308	2196.835	
35.62061	2198.661	
35.70181	2194.79	
35.72923	2195.778	
35.81173	2192.296	
35.83902	2188.344	
35.92127	2193.338	
35.94818	2183.685	
36.03123	2183.754	
36.05961	2178.208	
36.14103	2177.408	
36.16775	2177.315	
36.2499	2179.53	
36.27693	2167.745	
36.35821	2172.109	
36.38571	2161.221	
36.46846	2165.644	
36.49591	2162.236	
36.57784	2161.546	
36.60609	2163.577	
36.68898	2163.351	
36.71536	2156.028	
36.79689	2160.018	
36.82471	2158.602	
36.90638	2156.49	
36.93297	2152.459	
37.0149	2149.949	
37.04293	2145.029	
37.12558	2143.316	
37.15289	2143.964	
37.23432	2144.943	
37.2614	2135.013	
37.34348	2142.922	
37.3713	2134.381	
37.45284	2130.637	
37.48045	2131.734	
37.56389	2131.026	
37.59169	2125.964	
37.67244	2121.576	
37.70151	2119.421	
37.78158	2131.418	
37.80889	2121.375	
37.89212	2118.184	
37.91946	2112.812	
38.00162	2109.315	
38.02987	2104.222	
38.11023	2111.892	
38.13705	2099.859	
38.2189	2114.253	
38.24688	2104.339	
38.32888	2105.498	
38.35601	2097.937	
38.43906	2106.276	
38.46665	2095.249	
38.54658	2098.251	
38.57661	2096.484	
38.65659	2089.294	
38.68624	2091.882	
38.76545	2091.285	
38.79236	2090.736	
38.87586	2080.774	
38.90351	2085.73	
38.98638	2081.354	
39.01391	2076.698	
39.095	2078.372	
39.12292	2066.259	
39.20595	2080.805	
39.23281	2071.084	
39.31495	2075.331	
39.34278	2069.033	
39.42524	2077.986	
39.45224	2055.096	
39.53432	2062.372	
39.56105	2062.022	
39.64438	2059.475	
39.67134	2057.598	
39.75283	2050.726	
39.77978	2052.191	
39.86097	2057.371	
39.88837	2050.229	
39.97166	2046.336	
39.99935	2041.156	
40.08245	2048.229	
40.10961	2040.801	
40.19105	2043.377	
40.21776	2034.488	
40.29865	2037.677	
40.32801	2031.495	
40.41034	2033.133	
40.43845	2032.316	
40.5204	2032.339	
40.54807	2022.249	
40.62911	2031.151	
40.6566	2027.34	
40.73973	2022.759	
40.76761	2021.745	
40.8482	2017.957	
40.87565	2011.099	
40.95771	2011.287	
40.98572	2005.555	
41.06897	2011.699	
41.09592	2008.124	
41.17511	2012.461	
41.20764	2004.321	
41.2894	2002.929	
41.31914	1992.18	
41.39929	2003.735	
41.42662	1998.499	
41.51013	1998.187	
41.53728	1990.304	
41.61919	1992.482	
41.64631	1990.372	
41.7271	1997.289	
41.75479	1989.889	
41.83887	1992.573	
41.86551	1986.011	
41.94606	1987.192	
41.97353	1976.839	
42.05594	1982.499	
42.08303	1974.33	
42.16702	1971.804	
42.19477	1972.593	
42.27638	1968.996	
42.30343	1969.81	
42.38439	1967.998	
42.41137	1962.718	
42.49346	1967.764	
42.52199	1956.706	
42.60511	1958.367	
42.63245	1963.26	
42.71234	1958.362	
42.74023	1948.612	
42.82265	1951.093	
42.85201	1944.682	
42.93405	1957.303	
42.96151	1942.647	
43.04184	1952.043	
43.06983	1942.044	
43.1493	1941.219	
43.17756	1935.995	
43.26137	1938.226	
43.28917	1932.949	
43.37009	1937.206	
43.39674	1932.898	
43.47884	1930.233	
43.50619	1928.855	
43.58907	1926.325	
43.61653	1920.877	
43.69968	1924.262	
43.72705	1921.123	
43.80778	1921.06	
43.83496	1915.852	
43.91577	1924.958	
43.94273	1919.602	
44.02584	1920.211	
44.05357	1905.712	
44.13623	1916.462	
44.16395	1904.22	
44.24615	1901.802	
44.27323	1901.481	
44.35406	1901.867	
44.38169	1897.232	
44.46323	1896.658	
44.49267	1886.056	
44.57503	1898.853	
44.60169	1892.706	
44.6825	1893.894	
44.70944	1894.399	
44.79254	1892.269	
44.81931	1879.116	
44.90229	1882.136	
44.92979	1880.272	
45.01244	1884.405	
45.0397	1881.887	
45.1209	1875.689	
45.14872	1874.177	
45.22897	1876.448	
45.25696	1873.121	
45.34068	1876.087	
45.36809	1871.347	
45.45136	1876.457	
45.48111	1864.867	
45.56327	1860.615	
45.59058	1851.605	
45.67176	1861.249	
45.70019	1861.933	
45.78237	1859.339	
45.80935	1855.162	
45.89134	1853.892	
45.91844	1851.474	
45.99856	1857.258	
46.0269	1847.812	
46.11034	1851.76	
46.13733	1845.922	
46.21809	1851.09	
46.24555	1842.636	
46.32821	1851.017	
46.35628	1842.553	
46.43916	1838.355	
46.46586	1832.885	
46.54757	1837.689	
46.57492	1836.097	
46.6566	1832.38	
46.68451	1827.516	
46.76645	1825.444	
46.79353	1826.96	
46.87469	1827.679	
46.90333	1818.887	
46.98566	1818.528	
47.0127	1814.169	
47.09334	1817.589	
47.12108	1808.612	
47.20478	1814.565	
47.23182	1809.414	
47.31336	1808.666	
47.34077	1805.907	
47.42204	1807.916	
47.44928	1802.092	
47.53425	1801.556	
47.56131	1796.859	
47.64089	1806.745	
47.66797	1792.433	
47.75102	1802.722	
47.77914	1788.46	
47.86135	1786.736	
47.8889	1786.065	
47.96991	1785.391	
47.99799	1777.532	
48.08032	1787.677	
48.10803	1784.008	
48.19238	1781.171	
48.21984	1778.222	
48.29731	1778.339	
48.32653	1775.111	
48.40798	1771.135	
48.43561	1769.758	
48.51656	1768.669	
48.54428	1770.619	
48.6298	1771.527	
48.65702	1761.381	
48.73732	1762.208	
48.76422	1759.41	
48.84927	1769.819	
48.87693	1754.52	
48.96031	1763.166	
48.98844	1753.157	
49.06952	1759.838	
49.09703	1751.837	
49.17785	1750.886	
49.20473	1746.106	
49.28658	1750.786	
49.31432	1753.328	
49.39598	1744.057	
49.42307	1744.137	
49.50674	1738.829	
49.53567	1735.205	
49.61544	1745.169	
49.64217	1732.547	
49.72409	1742.53	
49.75236	1731.969	
49.83527	1728.772	
49.86267	1726.235	
49.94445	1737.547	
49.97187	1720.618	
50.05435	1732.977	
50.08156	1722.259	
50.16269	1722.637	
50.18996	1720.355	
50.27223	1725.627	
50.30039	1718.446	
50.38344	1719.359	
50.41085	1707.167	
50.49033	1709.994	
50.5173	1712.542	
50.60028	1714.977	
50.62841	1706.217	
50.71156	1706.049	
50.73915	1698.189	
50.82116	1705.659	
50.848	1695.551	
50.93045	1695.125	
50.95787	1694.507	
51.03883	1698.93	
51.06628	1686.981	
51.14844	1698.807	
51.17619	1689.413	
51.25921	1691.903	
51.2859	1680.635	
51.36716	1689.958	
51.39497	1676.428	
51.47742	1685.258	
51.50427	1678.771	
51.58442	1676.248	
51.61186	1669.462	
51.69611	1675.868	
51.72343	1665.965	
51.80382	1671.431	
51.83224	1664.484	
51.91698	1668.975	
51.94306	1666.083	
52.02147	1667.47	
52.04992	1660.401	
52.13548	1666.513	
52.1624	1662.861	
52.2423	1664.924	
52.26929	1653.951	
52.35355	1661.989	
52.38052	1651.643	
52.46019	1660.047	
52.48748	1651.994	
52.57232	1650.775	
52.59978	1643.683	
52.68062	1652.561	
52.70991	1640.629	
52.78959	1649.014	
52.8166	1645.903	
52.90088	1648.579	
52.93087	1634.543	
53.01046	1643.7	
53.03951	1634.725	
53.1202	1645.549	
53.14749	1631.381	
53.22786	1634.379	
53.25674	1629.404	
53.33842	1630.309	
53.36596	1627.853	
53.44987	1632.616	
53.47711	1622.094	
53.55896	1627.786	
53.58522	1616.345	
53.66758	1627.274	
53.69421	1610.158	
53.77636	1620.776	
53.80393	1617.776	
53.88762	1614.19	
53.91413	1613.144	
54.0002	1613.439	
54.02824	1607.309	
54.10989	1608.168	
54.13736	1599.401	
54.21914	1605.156	
54.2463	1601.794	
54.32972	1603.871	
54.3571	1596.579	
54.43767	1596.678	
54.46475	1589.04	
54.5515	1602.049	
54.57953	1591.308	
54.66013	1589.701	
54.68709	1582.473	
54.77054	1585.922	
54.79755	1575.822	
54.88167	1583.125	
54.91004	1577.342	
54.98816	1582.876	
55.01525	1575.866	
55.09875	1583.374	
55.12574	1572.216	
55.21236	1579.658	
55.23948	1571.732	
55.32174	1578.462	
55.34939	1565.361	
55.43285	1569.584	
55.45974	1562.829	
55.54576	1567.695	
55.57406	1561.09	
55.65482	1565.282	
55.68114	1561.639	
55.76538	1562.869	
55.79295	1557.214	
55.87541	1556.118	
55.90263	1554.085	
55.98374	1556.757	
56.01281	1551.039	
56.09461	1553.161	
56.12196	1541.617	
56.20208	1550.437	
56.22924	1540.563	
56.31261	1548.936	
56.33982	1537.748	
56.42182	1543.81	
56.4503	1534.184	
56.53406	1543.175	
56.56202	1530.219	
56.64226	1540.097	
56.67125	1529.624	
56.74888	1538.303	
56.77816	1527.721	
56.86049	1533.719	
56.89052	1524.554	
56.97085	1524.24	
56.998	1523.211	
57.07798	1525.827	
57.10883	1512.596	
57.19226	1519.995	
57.22195	1511.733	
57.30309	1514.021	
57.33273	1507.354	
57.41508	1517.274	
57.44319	1506.815	
57.5242	1518.037	
57.55215	1502.859	
57.63428	1509.11	
57.66321	1504.524	
57.74381	1504.277	
57.77434	1504.207	
57.85717	1505.735	
57.88467	1495.647	
57.96708	1501.476	
57.99498	1494.055	
58.07698	1503.371	
58.10419	1493.453	
58.18544	1498.68	
58.21198	1489.23	
58.29572	1491.037	
58.32321	1482.853	
58.4057	1491.126	
58.43436	1482.241	
58.51582	1488.616	
58.54324	1486.146	
58.62446	1487.718	
58.65104	1476.345	
58.73429	1476.199	
58.76184	1470.519	
58.84447	1479.784	
58.87229	1472.717	
58.95527	1475.3	
58.98404	1468.668	
59.06344	1471.772	
59.09075	1456.693	
59.17215	1470.72	
59.19984	1461.388	
59.28693	1470.773	
59.31455	1456.718	
59.39744	1464.11	
59.42481	1456.79	
59.50333	1461.409	
59.53085	1453.625	
59.61695	1458.6	
59.64595	1449.42	
59.72455	1456.363	
59.75193	1446.527	
59.8349	1451.989	
59.86303	1445.939	
59.94494	1455.667	
59.9715	1440.842	
60.05409	1458.518	
60.08166	1437.987	
60.16361	1444.968	
60.19198	1439.976	
60.27344	1437.016	
60.30086	1426.266	
60.38206	1437.125	
60.40947	1438.17	
60.49583	1443.264	
60.52533	1425.451	
60.6058	1437.491	
60.63305	1428.117	
60.71397	1432.14	
60.74154	1421.431	
60.82434	1425.786	
60.85304	1414.836	
60.93358	1421.626	
60.96148	1416.283	
61.0444	1420.596	
61.07114	1415.497	
61.15443	1419.201	
61.18168	1409.019	
61.26375	1415.731	
61.29084	1410.824	
61.37466	1416.273	
61.40211	1400.53	
61.4833	1414.184	
61.51153	1401.164	
61.59408	1416.82	
61.62182	1404.58	
61.70236	1406.431	
61.72971	1393.666	
61.813	1404.647	
61.84135	1393.346	
61.92406	1393.992	
61.95136	1390.665	
62.03377	1401.81	
62.06141	1395.125	
62.14493	1399.386	
62.17293	1388.855	
62.25242	1394.9	
62.28021	1387.031	
62.36387	1393.78	
62.39153	1387.081	
62.47086	1393.622	
62.49759	1380.723	
62.58054	1380.204	
62.60779	1377.836	
62.69082	1386.419	
62.7208	1374.095	
62.80029	1378.593	
62.82743	1364.335	
62.9095	1376.379	
62.93723	1369.153	
63.01984	1379.026	
63.04676	1359.451	
63.13034	1378.873	
63.15851	1364.149	
63.24026	1376.287	
63.26781	1360.592	
63.34891	1377.292	
63.37617	1360.086	
63.46029	1368.528	
63.48803	1363.304	
63.56924	1364.489	
63.59656	1351.328	
63.67875	1367.034	
63.70594	1356.565	
63.78977	1363.739	
63.81758	1348.961	
63.89832	1358.549	
63.92546	1348.446	
64.00749	1362.889	
64.03484	1348.694	
64.11758	1355.312	
64.14503	1346.447	
64.22799	1349.699	
64.25542	1348.903	
64.33813	1347.405	
64.36539	1347.198	
64.4465	1347.828	
64.4742	1339.238	
64.55629	1344.96	
64.58394	1343.378	
64.66545	1345.87	
64.69252	1340.582	
64.77433	1345.25	
64.80199	1332.67	
64.88482	1345.186	
64.9121	1332.331	
64.99357	1344.569	
65.02078	1337.894	
65.1032	1338.67	
65.13087	1333.092	
65.21123	1336.527	
65.23919	1324.273	
65.32344	1339.044	
65.35065	1329.609	
65.43147	1341.273	
65.4584	1325.599	
65.54266	1337.945	
65.5705	1329.23	
65.65156	1334.922	
65.67915	1328.633	
65.76229	1334.137	
65.78974	1327.072	
65.86932	1334.803	
65.89718	1328.546	
65.97949	1332.061	
66.00667	1325.745	
66.08925	1332.524	
66.11734	1323.458	
66.19977	1332.317	
66.22736	1326.988	
66.30978	1343.608	
66.33705	1330.607	
66.41909	1336.844	
66.44632	1331.679	
66.52679	1336.223	
66.55453	1328.621	
66.63779	1338.191	
66.66533	1328.269	
66.74896	1345.294	
66.7767	1336.042	
66.85564	1342.259	
66.88337	1338.132	
66.96796	1349.501	
66.99606	1335.561	
67.07725	1345.329	
67.10445	1343.464	
67.18558	1355.284	
67.21287	1343.637	
67.29584	1356.651	
67.32327	1346.399	
67.40586	1356.976	
67.4341	1349.198	
67.51499	1363.442	
67.54202	1356.412	
67.62409	1369.955	
67.65193	1361.844	
67.73507	1369.907	
67.76347	1368.841	
67.84455	1376.836	
67.87183	1370.583	
67.95351	1390.087	
67.98038	1378.348	
68.06329	1395.09	
68.09337	1388.394	
68.17602	1405.983	
68.20369	1389.813	
68.28651	1410.727	
68.31342	1402.754	
68.39497	1417.728	
68.42344	1416.574	
68.50563	1423.179	
68.53265	1416.771	
68.61493	1441.647	
68.64297	1431.575	
68.7255	1449.167	
68.75331	1444.086	
68.83326	1461.394	
68.86093	1453.352	
68.94842	1471.398	
68.97757	1467.142	
69.05815	1491.688	
69.08564	1479.105	
69.16542	1501.922	
69.19578	1496.135	
69.27633	1510.402	
69.307	1512.637	
69.39159	1532.231	
69.41864	1526.995	
69.50157	1554.59	
69.52924	1543.723	
69.61256	1572.837	
69.64538	1566.661	
69.72449	1590.139	
69.75181	1589.481	
69.83777	1621.293	
69.86527	1605.401	
69.94855	1632.402	
69.9769	1630.318	
70.05861	1651.524	
70.08575	1647.325	
70.16705	1679.639	
70.19494	1668.822	
70.27361	1697.437	
70.30112	1697.522	
70.38406	1726.179	
70.4127	1721.383	
70.49323	1751.213	
70.52026	1747.998	
70.60497	1778.469	
70.63254	1777.917	
70.71559	1810.172	
70.74664	1806.455	
70.8302	1847.313	
70.85739	1840.035	
70.9403	1871.77	
70.96803	1865.399	
71.05021	1904.951	
71.07653	1898.705	
71.15878	1938.118	
71.18567	1929.181	
71.26806	1965.228	
71.29742	1967.172	
71.38445	2011.766	
71.41199	2002.826	
71.49064	2043.498	
71.51746	2041.17	
71.59985	2090.172	
71.62746	2074.773	
71.71101	2112.532	
71.73856	2111.76	
71.82111	2152.777	
71.84756	2145.477	
71.92821	2196.101	
71.95705	2186.207	
72.03769	2233.093	
72.06545	2223.54	
72.14796	2280.832	
72.17629	2273.343	
72.25558	2319.338	
72.28378	2321.755	
72.3677	2356.876	
72.395	2364.164	
72.47646	2406.022	
72.50379	2399.954	
72.58753	2443.816	
72.61494	2439.847	
72.69632	2473.56	
72.72276	2464.288	
72.80545	2514.003	
72.83296	2500.366	
72.91508	2542.164	
72.9418	2531.567	
73.02514	2577.579	
73.05264	2564.536	
73.13567	2609.927	
73.16335	2593.949	
73.24322	2630.058	
73.2694	2613.499	
73.35376	2662.359	
73.3821	2635.934	
73.4672	2679.027	
73.49407	2666.487	
73.57535	2689.157	
73.60546	2670.783	
73.68855	2706.269	
73.717	2687.227	
73.80022	2726.989	
73.82858	2711.136	
73.90814	2744.781	
73.93501	2735.38	
74.01662	2757.517	
74.04482	2744.268	
74.12818	2764.004	
74.15763	2755.67	
74.23768	2779.723	
74.26474	2759.893	
74.34572	2792.406	
74.37331	2767.038	
74.45738	2801.845	
74.48794	2776.595	
74.56932	2805.55	
74.59642	2786.121	
74.6781	2815.515	
74.70774	2797.646	
74.7888	2822.755	
74.81815	2801.345	
74.89642	2829.755	
74.92742	2803.079	
75.01174	2832.981	
75.03811	2807.965	
75.11938	2848.351	
75.15067	2822.545	
75.23408	2856.118	
75.26179	2826.967	
75.34338	2849.301	
75.3736	2832.472	
75.45766	2858.788	
75.48545	2838.289	
75.5665	2865.761	
75.59689	2844.578	
75.6785	2875.749	
75.70572	2851.789	
75.78992	2873.777	
75.82003	2852.003	
75.90322	2881.746	
75.93124	2862.193	
76.0113	2892.352	
76.04364	2870.236	
76.12669	2894.954	
76.15355	2865.523	
76.23463	2900.584	
76.26218	2869.456	
76.34948	2911.044	
76.3773	2878.056	
76.45982	2894.738	
76.48724	2880.871	
76.57198	2915.175	
76.60047	2885.987	
76.68055	2913.491	
76.70868	2895.792	
76.79696	2920.975	
76.82458	2895.41	
76.90287	2920.902	
76.92969	2903.521	
77.01534	2926.616	
77.04308	2894.119	
77.12919	2937.166	
77.15533	2904.85	
77.23432	2928.294	
77.26519	2906.522	
77.34921	2934.877	
77.37628	2906.787	
77.45852	2926.925	
77.48663	2909.593	
77.56976	2944.804	
77.59728	2908.61	
77.67876	2945.083	
77.70625	2913.701	
77.79321	2941.089	
77.82088	2918.785	
77.90081	2934.035	
77.92809	2920.973	
78.01472	2938.02	
78.04487	2913.624	
78.12531	2948.82	
78.15384	2919.458	
78.23494	2946.978	
78.26161	2921.54	
78.34347	2950.321	
78.37108	2916.293	
78.45384	2950.059	
78.48144	2918.742	
78.56414	2952.701	
78.59142	2926.142	
78.6726	2959.179	
78.69944	2927.058	
78.78082	2956.472	
78.80907	2931.239	
78.89347	2968.638	
78.9204	2931.717	
79.003	2965.159	
79.03411	2931.481	
79.11649	2967.596	
79.14367	2940.379	
79.22488	2969.325	
79.25572	2945.331	
79.33865	2963.583	
79.36524	2941.382	
79.4473	2957.115	
79.47424	2938.856	
79.56035	2967.622	
79.58845	2938.789	
79.67154	2972.933	
79.69862	2926.541	
79.77985	2968.293	
79.80712	2933.949	
79.89401	2976.428	
79.92155	2948.655	
80.00448	2980.371	
80.03176	2951.356	
80.11374	2982.654	
80.14108	2952.446	
80.22192	2978.43	
80.25084	2948.002	
80.33405	2974.399	
80.36172	2949.645	
80.44044	2976.819	
80.46938	2953.534	
80.55022	2982.661	
80.57766	2953.312	
80.66242	2991.227	
80.69021	2958.17	
80.77068	2993.538	
80.79734	2965.102	
80.88326	2999.883	
80.91151	2969.912	
80.99435	2994.959	
81.02149	2967.164	
81.10358	3001.845	
81.13088	2969.121	
81.21223	2992.406	
81.2394	2966.372	
81.32309	2998.99	
81.35075	2975.175	
81.43227	3003.947	
81.46146	2985.266	
81.54214	3010.355	
81.56956	2977.618	
81.65205	3015.172	
81.67966	2989.639	
81.76128	3009.495	
81.78854	2982.363	
81.86993	3016.558	
81.89708	2987.296	
81.97959	3013.275	
82.00753	2989.41	
82.09113	3012.198	
82.11808	2979.692	
82.19817	3020.156	
82.2261	2994.018	
82.30847	3021.793	
82.33572	2996.192	
82.41743	3024.685	
82.44642	2998.361	
82.52705	3029.462	
82.55496	2999.137	
82.63857	3035.855	
82.66528	2999.13	
82.74551	3031.352	
82.77298	3005.89	
82.8573	3042.085	
82.88448	3004.55	
82.96574	3041.875	
82.99244	3016.353	
83.07384	3043.659	
83.10213	3016.089	
83.18466	3047.619	
83.21285	3016.684	
83.29366	3046.087	
83.3219	3027.081	
83.40554	3052.456	
83.43227	3008.057	
83.51251	3059.046	
83.54075	3029.281	
83.62263	3058.397	
83.64966	3031.785	
83.73232	3059.847	
83.76	3028.082	
83.84236	3074.462	
83.86975	3044.092	
83.95624	3079.933	
83.98272	3037.302	
84.06526	3069.489	
84.09333	3034.13	
84.17588	3076.341	
84.20274	3039.897	
84.28439	3064.109	
84.31198	3037.772	
84.39477	3069.509	
84.42245	3030.911	
84.50498	3068.157	
84.53194	3035.905	
84.61329	3072.655	
84.63982	3041.471	
84.72317	3074.901	
84.75061	3038.079	
84.8326	3060.358	
84.86022	3045.759	
84.94099	3071.821	
84.96829	3041.425	
85.05146	3075.19	
85.07937	3041.441	
85.16219	3060.756	
85.18921	3022.715	
85.26979	3074.649	
85.29667	3035.922	
85.37958	3076.049	
85.40797	3034.943	
85.48952	3067.779	
85.51595	3029.091	
85.59609	3074.465	
85.62405	3031.554	
85.70924	3066.281	
85.73676	3032.716	
85.81886	3057.178	
85.84689	3033.059	
85.92753	3059.477	
85.95637	3028.219	
86.03654	3063.007	
86.06438	3019.097	
86.14806	3066.466	
86.17551	3023.983	
86.25751	3055.407	
86.28485	3029.574	
86.36614	3051.136	
86.39333	3017.825	
86.47586	3042.801	
86.50377	3017.672	
86.58554	3040.12	
86.61246	3015.59	
86.69555	3039.703	
86.72228	3003.632	
86.80422	3045.14	
86.83242	3009.118	
86.91271	3035	
86.93983	3000.264	
87.02378	3031.391	
87.05141	2992.956	
87.134	3030.09	
87.16085	2991.665	
87.24484	3016.787	
87.27206	2988.858	
87.35406	3018.146	
87.38178	2984.57	
87.46407	3024.224	
87.4914	2976.301	
87.57348	3012.265	
87.60098	2978.884	
87.68135	3007.767	
87.70786	2966.056	
87.79037	3004.319	
87.81924	2968.79	
87.9007	2997.667	
87.92867	2959.51	
88.01006	2998.236	
88.03716	2959.738	
88.11906	3000.135	
88.14669	2953.361	
88.22889	2988.473	
88.25655	2944.471	
88.33795	2981.249	
88.36513	2940.737	
88.44891	2978.649	
88.47699	2934.263	
88.55977	2969.195	
88.58649	2937.32	
88.66885	2962.448	
88.69572	2935.847	
88.7766	2964.216	
88.80386	2923.509	
88.88531	2958.619	
88.91312	2916.323	
88.99801	2952.196	
89.02607	2907.573	
89.10669	2949.33	
89.13456	2906.497	
89.21456	2944.073	
89.2418	2904.096	
89.32541	2933.812	
89.35286	2898.927	
89.4351	2926.819	
89.46231	2898.694	
89.54453	2921.01	
89.57228	2891.253	
89.65464	2909.932	
89.68214	2878.84	
89.76305	2923.099	
89.79021	2879.811	
89.87298	2911.839	
89.90031	2866.937	
89.98258	2904.335	
90.01043	2866.58	
90.09387	2882.39	
90.12112	2855.454	
90.20266	2887.69	
90.23003	2856.678	
90.31281	2881.707	
90.34024	2855.581	
90.42159	2876.187	
90.44883	2839.6	
90.52998	2863.692	
90.55737	2836.902	
90.64227	2860.407	
90.67016	2829.554	
90.75077	2861.903	
90.77746	2831.585	
90.86015	2861.477	
90.88824	2831.657	
90.97058	2854.463	
90.9976	2813.598	
91.07927	2834.738	
91.1066	2811.436	
91.18828	2850.988	
91.21535	2803.064	
91.29845	2834.409	
91.32594	2800.794	
91.40849	2837.137	
91.43497	2796.887	
91.51533	2830.507	
91.54253	2788.974	
91.62583	2826.168	
91.65398	2778.02	
91.73645	2820.575	
91.76321	2776.424	
91.84711	2804.345	
91.87467	2765.365	
91.9549	2799.742	
91.98215	2770.456	
92.06488	2793.278	
92.09246	2760.766	
92.17686	2784.971	
92.20414	2763.527	
92.28295	2778.461	
92.31021	2760.52	
92.39404	2774.422	
92.42007	2738.735	
92.50349	2769.206	
92.53104	2736.295	
92.61185	2765.93	
92.63937	2730.468	
92.72221	2760.592	
92.74972	2720.521	
92.8334	2748.49	
92.86089	2722.542	
92.9401	2742.867	
92.96747	2706.881	
93.05112	2742.048	
93.07899	2700.549	
93.16087	2733.372	
93.18806	2702.071	
93.27009	2729.307	
93.29753	2693.062	
93.38027	2727.272	
93.40782	2682.604	
93.48985	2719.401	
93.51682	2674.466	
93.59904	2709.359	
93.62618	2675.091	
93.7094	2705.546	
93.73711	2672.993	
93.81906	2702.588	
93.84566	2657.691	
93.92532	2702.325	
93.9525	2658.795	
94.03386	2692.116	
94.06047	2654.399	
94.14054	2680.524	
94.16648	2637.489	
94.23947	2668.381	
94.26429	2634.459	
94.33674	2668.061	
94.36052	2630.956	
94.42997	2663.023	
94.45213	2628.374	
94.51601	2648.703	
94.53713	2622.464	
94.59803	2648.819	
94.61895	2618.744	
94.6757	2644.348	
94.69349	2615.884	
94.7445	2646.116	
94.76049	2602.991	
94.8038	2647.378	
94.81752	2612.981	
94.85796	2640.957	
94.87116	2602.127	
94.90462	2640.674	
94.91479	2603.735	
94.94162	2634.862	
94.94937	2596.716	
94.97065	2640.749	
94.9762	2601.01	
94.99035	2633.886	
