T[Â°C]	330nm [counts / mm]	S.D.
20.00003	8096.577	10.09649
20.05401	8090.376	13.9559
20.108	8075.159	10.28172
20.16199	8065.438	13.13245
20.21597	8057.977	11.36089
20.26996	8057.268	14.06981
20.32394	8052.734	18.53419
20.37793	8046.687	16.99873
20.43192	8031.728	16.84307
20.4859	8022.764	23.17154
20.53989	8019.775	21.33963
20.59388	8016.899	12.2226
20.64786	8001.536	33.85512
20.70185	7993.563	25.47683
20.75584	7993.169	20.15889
20.80982	7988.14	23.06295
20.86381	7984.83	30.05356
20.9178	7978.654	17.01955
20.97178	7967.054	23.20059
21.02577	7964.563	24.35594
21.07975	7964.656	26.42703
21.13374	7954.671	28.04689
21.18773	7944.639	22.85372
21.24171	7944.317	19.78334
21.2957	7937.475	19.52235
21.34969	7925.223	14.19205
21.40367	7917.3	16.71452
21.45766	7912.357	22.28481
21.51164	7910.549	26.70532
21.56563	7904.971	24.27084
21.61962	7891.161	27.72545
21.6736	7884.052	25.71492
21.72759	7885.602	27.41007
21.78158	7879.73	30.00579
21.83556	7869.72	30.07453
21.88955	7877.043	31.89405
21.94353	7859.321	26.68284
21.99752	7857.473	23.14613
22.05151	7851.242	19.7317
22.1055	7848.274	18.2182
22.15948	7848.796	19.55133
22.21347	7838.404	18.51779
22.26745	7828.367	22.48395
22.32144	7826.813	20.07224
22.37543	7815.792	23.79222
22.42941	7808.798	18.34745
22.4834	7803.743	25.84095
22.53739	7800.933	25.49365
22.59137	7792.157	16.5183
22.64536	7786.822	19.19848
22.69934	7772.098	15.02959
22.75333	7771.701	17.33718
22.80732	7759.535	21.86727
22.8613	7762.48	26.56975
22.91529	7751.085	24.3967
22.96928	7752.49	20.0172
23.02326	7743.699	12.22635
23.07725	7737.717	10.76571
23.13124	7723.818	12.25288
23.18522	7725.07	11.99109
23.23921	7712.92	15.63151
23.29319	7715.556	4.96062
23.34718	7711.215	1.594576
23.40117	7705.728	6.439242
23.45515	7694.105	9.307964
23.50914	7691.575	15.00066
23.56313	7686.667	19.76661
23.61711	7682.511	18.91361
23.6711	7680.206	20.49831
23.72508	7673.74	24.88077
23.77907	7665.703	24.52035
23.83306	7656.183	18.86836
23.88704	7657.16	27.57509
23.94103	7651.979	22.77865
23.99502	7643.697	16.36799
24.049	7634.243	15.01423
24.10299	7627.761	13.70169
24.15698	7614.646	17.51635
24.21096	7611.447	13.5665
24.26495	7609.328	22.85176
24.31894	7605.385	17.82629
24.37292	7603.997	17.96281
24.42691	7593.014	18.33857
24.48089	7586.33	18.77436
24.53488	7584.763	20.51367
24.58887	7579.521	21.13831
24.64285	7579.685	22.87877
24.69684	7564.972	33.54279
24.75083	7565.069	34.48104
24.80481	7553.103	28.2985
24.8588	7548.616	29.24096
24.91278	7547.656	27.74413
24.96677	7537.091	32.88543
25.02076	7520.586	21.25401
25.07474	7522.69	18.74537
25.12873	7516.797	21.22869
25.18272	7509.744	19.31406
25.2367	7510.965	16.00357
25.29069	7506.632	10.99803
25.34468	7495.351	21.59654
25.39866	7491.539	19.34598
25.45265	7475.872	22.31241
25.50664	7469.866	24.32636
25.56062	7468.542	15.76705
25.61461	7468.192	26.83568
25.66859	7462.41	31.88482
25.72258	7456.924	21.46703
25.77657	7450.224	28.73842
25.83055	7453.713	23.77927
25.88454	7449.719	27.29756
25.93853	7437.192	23.41879
25.99251	7440.817	23.04935
26.0465	7431.227	23.93512
26.10048	7412.254	25.92763
26.15447	7411.047	20.37534
26.20846	7394.795	24.81239
26.26244	7389.576	19.59797
26.31643	7384.185	27.06859
26.37042	7383.989	22.37954
26.4244	7395.288	21.94711
26.47839	7382.213	19.74643
26.53238	7371.135	19.38758
26.58636	7363.885	19.52918
26.64035	7347.417	19.20455
26.69433	7350.164	21.03242
26.74832	7348.504	19.53913
26.80231	7342.315	17.2987
26.85629	7341.992	24.12595
26.91028	7333.736	21.38911
26.96427	7339.317	17.93973
27.01825	7328.063	16.4129
27.07224	7307.958	8.185418
27.12623	7303.861	16.03172
27.18021	7296.208	18.86821
27.2342	7292.114	24.57028
27.28819	7295.439	23.20612
27.34217	7287.86	22.90436
27.39616	7280.421	29.19734
27.45014	7276.625	23.58429
27.50413	7271.481	14.6346
27.55812	7262.538	17.08499
27.6121	7254.946	16.72771
27.66609	7247.759	16.58247
27.72008	7241.58	21.86942
27.77406	7244.509	21.53575
27.82805	7239	30.87545
27.88203	7225.838	22.38911
27.93602	7222.228	20.2168
27.99001	7217.387	27.84549
28.04399	7208.419	25.55949
28.09798	7205.745	25.39937
28.15197	7193.357	24.21746
28.20595	7185.071	22.90187
28.25994	7185.137	25.94319
28.31392	7182.836	19.99648
28.36791	7180.62	23.44846
28.4219	7180.239	33.0081
28.47589	7175.791	29.40121
28.52987	7174.408	21.8955
28.58386	7164.176	15.75695
28.63784	7157.619	27.29028
28.69183	7148.184	34.16339
28.74582	7141.99	20.68237
28.7998	7135.166	21.64338
28.85379	7136.612	25.25294
28.90778	7126.84	22.5911
28.96176	7125.038	21.26605
29.01575	7123.146	22.22781
29.06973	7109.743	25.77924
29.12372	7102.097	27.90605
29.17771	7101.968	22.29348
29.23169	7091.44	26.13305
29.28568	7086.224	31.48603
29.33967	7083.289	29.79507
29.39365	7077.014	23.84698
29.44764	7076.806	20.63364
29.50163	7074.236	29.6567
29.55561	7067.503	20.01817
29.6096	7062.592	27.67426
29.66358	7051.572	21.7325
29.71757	7042.412	24.91118
29.77156	7036.582	26.88588
29.82554	7030.967	23.85951
29.87953	7027.404	26.21148
29.93352	7031.027	14.41317
29.9875	7017.067	16.09438
30.04149	7016.63	17.87815
30.09547	7007.911	23.81337
30.14946	7002.013	26.88855
30.20345	6996.232	30.39524
30.25743	6986.762	21.30665
30.31142	6981.662	16.44512
30.36541	6974.14	14.67728
30.41939	6974.276	11.97726
30.47338	6973.938	8.728716
30.52737	6962.489	9.335631
30.58135	6966.799	16.86001
30.63534	6957.03	16.87176
30.68933	6945.275	9.583434
30.74331	6936.089	17.21434
30.7973	6932.288	14.41418
30.85128	6925.896	16.1083
30.90527	6922.761	15.49459
30.95926	6917.549	18.61395
31.01324	6913.56	11.29849
31.06723	6910.299	15.01326
31.12122	6909.209	15.71132
31.1752	6900.644	23.64794
31.22919	6891.165	26.8427
31.28317	6882.061	22.58202
31.33716	6878.046	25.8424
31.39115	6874.68	22.11058
31.44513	6870.794	23.01904
31.49912	6865.765	26.42062
31.55311	6861.843	17.63097
31.60709	6856.59	17.40174
31.66108	6854.432	19.58869
31.71507	6850.247	10.23
31.76905	6836.698	11.11209
31.82304	6829.091	14.19715
31.87703	6823.345	9.959867
31.93101	6824.839	15.9735
31.985	6828.953	21.27038
32.03898	6815.674	22.81035
32.09297	6812.056	26.19471
32.14696	6812.54	31.04981
32.20094	6807.598	30.60317
32.25493	6795.208	22.74034
32.30891	6791.04	25.7075
32.3629	6781.848	29.46127
32.41689	6775.012	21.59578
32.47087	6770.07	18.14821
32.52486	6771.944	22.33627
32.57885	6759.199	21.94623
32.63284	6753.864	27.8943
32.68682	6747.181	22.65588
32.74081	6740.296	24.08864
32.79479	6742.602	16.52572
32.84878	6735.111	19.56708
32.90277	6727.083	23.87763
32.95675	6727.758	21.27885
33.01074	6713.869	28.6139
33.06472	6718.259	26.21083
33.11871	6712.679	25.10682
33.1727	6702.277	30.79217
33.22668	6701.055	23.01881
33.28067	6695.001	18.09034
33.33466	6694.466	26.12895
33.38864	6689.087	32.52748
33.44263	6686.406	17.08668
33.49662	6675.907	20.59725
33.5506	6670.296	23.10071
33.60459	6663.534	26.28449
33.65857	6648.063	25.23053
33.71256	6653.715	21.873
33.76655	6649.945	21.36638
33.82053	6638.391	15.41651
33.87452	6650.562	12.97314
33.9285	6639.339	16.90017
33.98249	6621.501	28.77017
34.03648	6623.494	21.07645
34.09047	6617.167	22.19991
34.14445	6617.271	19.04199
34.19844	6603.964	20.07114
34.25243	6599.243	14.28347
34.30641	6602.532	15.43483
34.3604	6591.581	22.23354
34.41438	6591.847	14.8115
34.46837	6578.399	15.6713
34.52236	6577.224	22.04277
34.57634	6567.34	23.9799
34.63033	6555.867	23.79939
34.68431	6552.707	21.40288
34.7383	6555.434	21.44352
34.79229	6546.671	23.15701
34.84628	6550.508	20.34798
34.90026	6542.043	14.78572
34.95425	6540.461	10.24291
35.00823	6532.67	21.38325
35.06222	6526.938	27.28308
35.11621	6520.089	27.6109
35.17019	6518.546	26.37665
35.22418	6511.264	23.14125
35.27816	6508.781	25.09925
35.33215	6501.901	22.57869
35.38614	6493.934	19.28994
35.44012	6484.502	26.6034
35.49411	6476.678	28.74201
35.5481	6476.713	31.02082
35.60209	6474.213	33.25483
35.65607	6467.189	28.13204
35.71006	6462.921	27.7729
35.76404	6455.965	22.87452
35.81803	6450.243	25.988
35.87202	6445.108	26.45745
35.926	6434.813	21.56009
35.97999	6437.495	16.56386
36.03397	6427.496	13.42675
36.08796	6419.888	17.58289
36.14195	6417.512	23.95487
36.19593	6415.112	24.19514
36.24992	6412.25	31.34228
36.30391	6405.909	29.59162
36.35789	6393.985	23.58844
36.41188	6387.346	38.45087
36.46587	6381.947	32.34755
36.51985	6384.15	27.09115
36.57384	6386.044	28.41882
36.62782	6378.75	34.47161
36.68181	6371.385	41.17911
36.7358	6364.587	27.71058
36.78978	6355.016	32.68562
36.84377	6353.649	27.50525
36.89775	6344.787	38.22459
36.95174	6338.896	39.88531
37.00573	6336.632	35.95079
37.05972	6327.685	25.37073
37.1137	6325.283	28.00902
37.16769	6320.146	24.0382
37.22168	6312.93	20.98739
37.27566	6310.288	30.56193
37.32965	6307.187	34.72177
37.38363	6302.564	27.93851
37.43762	6302.855	35.81861
37.49161	6291.248	25.79926
37.54559	6283.086	31.8091
37.59958	6274.045	33.63713
37.65356	6272.202	32.44229
37.70755	6268.591	19.81262
37.76154	6261.777	24.5104
37.81553	6269.614	19.08329
37.86951	6256.25	20.56607
37.9235	6251.628	21.3385
37.97748	6247.161	23.96861
38.03147	6237.634	25.99279
38.08546	6235.261	29.33097
38.13944	6234.173	29.11398
38.19343	6226.434	26.62297
38.24741	6228.698	24.20687
38.3014	6221.449	22.90009
38.35539	6213.208	23.94137
38.40937	6210.979	25.37541
38.46336	6205.53	32.06519
38.51735	6201.23	35.68132
38.57133	6202.449	28.57638
38.62532	6191.023	31.34729
38.67931	6186.714	27.07268
38.73329	6180.896	25.63365
38.78728	6177.63	22.91683
38.84127	6165.762	26.62948
38.89525	6163.753	21.75216
38.94924	6156.388	28.14447
39.00322	6148.267	27.11104
39.05721	6148.689	26.33098
39.1112	6138.069	24.54354
39.16518	6132.213	29.76571
39.21917	6127.06	22.89271
39.27316	6129.88	25.17158
39.32714	6129.201	24.09858
39.38113	6120.85	30.80257
39.43512	6120.656	33.51292
39.4891	6119.445	31.40259
39.54309	6111.593	34.34734
39.59707	6108.062	29.73831
39.65106	6098.289	25.98017
39.70505	6088.623	31.9353
39.75903	6083.886	34.26033
39.81302	6077.083	33.58859
39.867	6069.851	32.46558
39.92099	6074.617	32.54717
39.97498	6066.848	46.66197
40.02896	6057.877	34.85053
40.08295	6054.988	42.71744
40.13694	6047.014	24.38808
40.19092	6044.306	26.26605
40.24491	6040.703	25.93875
40.2989	6042.724	32.14631
40.35288	6038.792	28.02991
40.40687	6027.917	29.87087
40.46085	6020.993	23.26413
40.51484	6015.824	36.46549
40.56883	6020.814	35.0965
40.62281	6011.52	38.25455
40.6768	6013.299	28.79998
40.73079	6000.25	28.96111
40.78477	5989.544	31.8356
40.83876	5986.148	29.51564
40.89275	5973.942	23.83432
40.94673	5967.694	26.93271
41.00072	5977.634	27.74312
41.05471	5970.297	28.75883
41.10869	5959.669	28.05684
41.16268	5951.723	30.70686
41.21666	5955.745	26.98218
41.27065	5948.686	23.92449
41.32464	5943.471	25.62541
41.37862	5941.096	22.1816
41.43261	5934.973	26.5391
41.4866	5929.241	22.32721
41.54058	5930.784	13.98157
41.59457	5919.354	17.03098
41.64856	5920.507	18.76504
41.70254	5904.484	28.15029
41.75653	5916.774	15.52633
41.81051	5909.854	19.69296
41.8645	5893.885	25.34506
41.91849	5894.542	28.43928
41.97247	5889.358	21.12391
42.02646	5882.453	30.17584
42.08044	5888.162	21.46298
42.13443	5876.583	23.51287
42.18842	5882.025	22.70276
42.2424	5865.693	25.65443
42.29639	5858.256	30.36207
42.35038	5851.782	31.69404
42.40437	5845.195	28.3474
42.45835	5843.71	28.06279
42.51234	5841.928	17.00168
42.56632	5836.921	16.94451
42.62031	5829.155	10.90754
42.6743	5822.808	22.01078
42.72828	5829.398	21.18327
42.78227	5819.046	27.21566
42.83625	5821.188	25.13735
42.89024	5811.748	24.65326
42.94423	5792.544	27.72936
42.99821	5795.023	31.47634
43.0522	5799.107	31.95204
43.10619	5790.633	36.55153
43.16017	5785.802	33.76694
43.21416	5781.434	26.80863
43.26815	5779.128	24.03449
43.32213	5775.175	26.15605
43.37612	5762.036	27.61801
43.4301	5761.2	28.11945
43.48409	5753.553	31.16193
43.53808	5750.811	23.77364
43.59206	5748.139	24.00471
43.64605	5741.841	18.42652
43.70004	5739.05	28.02581
43.75402	5728.001	26.24879
43.80801	5718.591	29.6497
43.862	5724.665	30.84665
43.91598	5721.342	34.0972
43.96997	5718.43	31.44763
44.02396	5706.688	34.28379
44.07794	5698.471	25.3927
44.13193	5701.035	26.57714
44.18591	5692.024	27.09938
44.2399	5691.023	34.96754
44.29389	5689.483	30.94449
44.34787	5681.729	28.48919
44.40186	5680.91	27.46061
44.45584	5671.003	30.48385
44.50983	5675.245	27.35501
44.56382	5664.984	30.68541
44.61781	5659.333	26.08599
44.67179	5657.898	26.69195
44.72578	5651.976	20.73263
44.77976	5639.651	20.84486
44.83375	5640.26	25.92687
44.88774	5629.049	30.16844
44.94172	5631.618	27.53724
44.99571	5624.81	30.28718
45.04969	5624.576	27.76813
45.10368	5619.659	24.34478
45.15767	5615.715	28.78006
45.21165	5607.573	25.68579
45.26564	5608.448	17.6081
45.31963	5600.477	21.34749
45.37362	5597.771	24.66003
45.4276	5585.271	27.79254
45.48159	5591.022	15.1641
45.53557	5583.118	21.59602
45.58956	5581.757	28.4734
45.64355	5573.06	28.69244
45.69753	5562.233	17.84218
45.75152	5560.155	22.98399
45.8055	5560.958	16.99873
45.85949	5550.552	21.20939
45.91348	5553.808	23.99475
45.96746	5542.74	21.69165
46.02145	5543.537	26.00432
46.07544	5536.86	27.94064
46.12942	5528.586	33.89838
46.18341	5523.411	30.13805
46.2374	5515.6	25.14698
46.29138	5510.833	30.57767
46.34537	5518.392	31.94703
46.39935	5506.594	29.5951
46.45334	5509.495	23.90909
46.50733	5499.101	23.98548
46.56131	5492.246	23.47576
46.6153	5486.285	26.04584
46.66928	5485.806	14.60693
46.72327	5484.738	24.1541
46.77726	5479.5	19.11661
46.83125	5471.903	14.72922
46.88523	5474.431	22.6312
46.93922	5465.774	25.90117
46.99321	5462.371	27.46605
47.04719	5454.975	27.78707
47.10118	5450.491	30.20674
47.15516	5445.654	26.73378
47.20915	5438.466	21.77028
47.26314	5435.533	24.50801
47.31712	5434.458	26.15211
47.37111	5431.965	26.19217
47.42509	5419.475	27.70221
47.47908	5421.542	22.88515
47.53307	5413.174	28.94532
47.58706	5409.42	30.58803
47.64104	5401.634	40.38781
47.69503	5403.668	26.27515
47.74901	5398.394	28.79829
47.803	5390.99	22.13374
47.85699	5395.048	24.81347
47.91097	5386.06	31.091
47.96496	5379.098	37.80485
48.01894	5378.154	24.53304
48.07293	5367.106	33.36763
48.12692	5368.281	28.88663
48.1809	5354.661	32.41217
48.23489	5357.453	26.48237
48.28888	5350.248	24.14826
48.34286	5347.847	31.39367
48.39685	5343.837	36.80308
48.45084	5346.118	27.07402
48.50482	5334.387	27.60703
48.55881	5328.331	19.4842
48.6128	5320.669	20.52501
48.66678	5321.432	25.83332
48.72077	5311.516	24.1854
48.77475	5320.147	20.8731
48.82874	5316.328	23.482
48.88273	5308.266	17.82498
48.93671	5297.318	29.26209
48.9907	5298.938	23.78376
49.04469	5287.476	26.91113
49.09867	5291.327	19.40423
49.15266	5280.927	20.72677
49.20665	5280.511	29.64584
49.26063	5268.308	28.3701
49.31462	5271.098	17.17272
49.3686	5265.531	21.93352
49.42259	5260.278	16.35065
49.47658	5250.606	25.62186
49.53056	5253.642	21.26327
49.58455	5249.045	24.23858
49.63853	5252.631	23.194
49.69252	5238.176	25.26382
49.74651	5244.113	15.39549
49.8005	5233.128	21.55121
49.85448	5235.446	8.816806
49.90847	5222.815	21.98651
49.96246	5219.004	17.44738
50.01644	5214.159	23.79915
50.07043	5209.307	30.36822
50.12441	5202.4	28.28136
50.1784	5206.989	26.90291
50.23239	5195.198	28.05083
50.28637	5203.229	24.66829
50.34036	5187.558	29.93597
50.39434	5181.775	23.02669
50.44833	5173.79	23.80215
50.50232	5178.774	18.2901
50.5563	5167.996	21.12155
50.61029	5160.377	21.77377
50.66428	5161.823	21.71416
50.71826	5160.555	23.13062
50.77225	5152.502	20.97689
50.82624	5145.96	18.84328
50.88022	5146.798	23.75937
50.93421	5138.06	27.68426
50.98819	5142.161	26.1884
51.04218	5132.759	33.38885
51.09617	5134.788	25.60458
51.15015	5119.458	25.32835
51.20414	5118.151	21.83369
51.25813	5112.244	28.47591
51.31211	5109.336	27.05042
51.3661	5100.729	33.46435
51.42009	5105.306	25.77551
51.47407	5091.269	24.64085
51.52806	5091.083	30.1951
51.58205	5083.018	31.94539
51.63603	5084.268	27.97139
51.69002	5075.293	26.33244
51.744	5073.606	28.18258
51.79799	5073.137	28.13625
51.85198	5069.002	17.41518
51.90596	5061.287	21.23715
51.95995	5068.919	21.83386
52.01394	5060.711	30.72666
52.06792	5056.487	19.56008
52.12191	5046.875	19.91891
52.1759	5039.792	21.6467
52.22988	5033.695	25.6175
52.28387	5035.491	21.36481
52.33785	5025.359	30.80095
52.39184	5024.213	23.55627
52.44583	5012.478	25.4868
52.49981	5016.22	21.81321
52.5538	5009.32	24.24081
52.60778	5011.839	21.52282
52.66177	4999.45	22.52591
52.71576	5001.233	24.91105
52.76974	4997.289	26.74036
52.82373	4991.318	14.42925
52.87772	4987.974	20.05747
52.93171	4987.986	13.12097
52.98569	4978.709	20.61215
53.03968	4988.267	22.2931
53.09366	4974.838	18.3363
53.14765	4969.853	13.17124
53.20163	4964.451	19.18706
53.25562	4961.241	10.90929
53.30961	4953.777	22.42832
53.36359	4950.458	20.94022
53.41758	4946.365	22.87886
53.47157	4942.331	12.56573
53.52555	4933.195	20.03222
53.57954	4941.589	15.42327
53.63353	4929.746	21.07834
53.68751	4928.105	20.93761
53.7415	4920.632	26.55809
53.79549	4926.319	13.4794
53.84947	4916.753	17.9401
53.90346	4913.769	5.739392
53.95744	4909.202	19.39227
54.01143	4899.587	22.75716
54.06542	4893.573	23.37625
54.1194	4892.335	19.83522
54.17339	4888.063	23.00086
54.22738	4887.839	31.23089
54.28136	4882.278	31.20371
54.33535	4879.702	19.35278
54.38934	4877.126	19.22516
54.44332	4871.735	24.89002
54.49731	4862.782	23.78149
54.55129	4855.8	20.70461
54.60528	4850.96	16.49216
54.65927	4847.478	18.15252
54.71325	4849.333	23.83523
54.76724	4840.799	23.61264
54.82122	4836.917	21.1832
54.87521	4834.329	26.6193
54.9292	4837.506	20.54137
54.98318	4835.984	22.53399
55.03717	4829.423	21.25243
55.09116	4814.191	25.78118
55.14515	4821.843	23.33687
55.19913	4809.602	27.39697
55.25312	4811.287	25.58157
55.3071	4801.845	30.10601
55.36109	4797.202	22.33223
55.41508	4792.102	27.61922
55.46906	4795.044	27.21009
55.52305	4788.912	28.30145
55.57703	4786.529	24.28839
55.63102	4772.307	28.24051
55.68501	4777.975	25.94733
55.73899	4771.712	29.30751
55.79298	4769.484	18.27141
55.84697	4765.163	18.7558
55.90095	4762.941	22.85554
55.95494	4757.965	30.58238
56.00893	4757.78	24.47784
56.06291	4744.803	26.6349
56.1169	4752.279	24.32983
56.17088	4738.084	28.0661
56.22487	4739.594	26.55856
56.27886	4731.933	29.62616
56.33284	4733.144	19.46152
56.38683	4716.433	21.16181
56.44081	4724.026	15.97734
56.4948	4719.784	25.10816
56.54879	4709.995	12.27248
56.60278	4703.502	19.96253
56.65676	4717.228	11.70408
56.71075	4704.679	15.8105
56.76474	4704.521	13.00017
56.81872	4693.504	17.14845
56.87271	4692.254	29.49968
56.92669	4687.213	26.39484
56.98068	4680.187	17.70727
57.03467	4676.349	19.76696
57.08865	4676.204	11.059
57.14264	4668.288	22.37753
57.19662	4677.154	18.90456
57.25061	4663.259	18.73687
57.3046	4662.629	12.87836
57.35859	4653.758	18.27302
57.41257	4649.827	20.13683
57.46656	4645.952	26.54409
57.52054	4641.103	21.42818
57.57453	4639.45	21.8913
57.62852	4643.477	13.88848
57.6825	4634.54	21.48331
57.73649	4635.236	19.20301
57.79047	4623.243	25.59548
57.84446	4631.007	25.7646
57.89845	4621.265	26.68989
57.95243	4616.613	24.12144
58.00642	4608.057	22.41982
58.06041	4594.874	25.40806
58.1144	4597.089	28.48635
58.16838	4588.67	35.33666
58.22237	4594.56	22.10153
58.27635	4586.923	26.59646
58.33034	4587.116	22.11422
58.38433	4577.607	25.88534
58.43831	4578.664	20.65428
58.4923	4570.34	20.65546
58.54628	4576.186	8.828308
58.60027	4562.874	18.02566
58.65426	4567.562	18.54272
58.70824	4559.918	29.44251
58.76223	4557.916	20.65055
58.81622	4554.036	22.77177
58.8702	4551.45	18.43597
58.92419	4543.11	24.56519
58.97818	4547.808	21.43022
59.03216	4535.644	24.05464
59.08615	4541.603	19.21087
59.14013	4528.654	20.83603
59.19412	4522.723	15.39762
59.24811	4514.083	17.65339
59.30209	4522.034	14.59474
59.35608	4513.713	20.04322
59.41006	4512.645	12.70154
59.46405	4505.464	19.77639
59.51804	4508.963	22.82145
59.57203	4500.595	23.86858
59.62601	4498.236	22.99518
59.68	4492.8	29.59796
59.73399	4497.066	23.96935
59.78797	4484.462	25.35291
59.84196	4478.568	20.34448
59.89594	4477.002	21.45982
59.94993	4475.269	20.16983
60.00392	4469.599	22.6027
60.0579	4468.156	21.24716
60.11189	4463.547	17.90355
60.16587	4456.661	19.73092
60.21986	4457.56	18.7448
60.27385	4447.146	22.13227
60.32784	4447.418	20.63334
60.38182	4441.512	23.6579
60.43581	4440.08	14.25879
60.48979	4431.751	21.78544
60.54378	4434.208	12.73002
60.59777	4429.117	18.07245
60.65175	4432.094	12.94977
60.70574	4420.115	25.26695
60.75972	4424.712	18.75567
60.81371	4413.496	20.47234
60.8677	4418.125	19.50931
60.92168	4408.331	23.51291
60.97567	4415.318	12.32731
61.02966	4408.552	18.09824
61.08364	4404.493	7.607347
61.13763	4395.658	16.74459
61.19162	4399.68	14.95669
61.2456	4386.793	15.55251
61.29959	4390.726	14.45986
61.35358	4380.463	21.9742
61.40756	4387.428	15.86094
61.46155	4377.944	16.50692
61.51553	4368.244	18.16687
61.56952	4365.638	19.38713
61.62351	4365.751	18.82785
61.67749	4360.075	22.16929
61.73148	4356.129	23.51282
61.78547	4352.817	24.122
61.83945	4353.727	21.71839
61.89344	4353.373	24.77643
61.94743	4351.742	26.98119
62.00141	4348.943	18.29083
62.0554	4338.592	24.88541
62.10938	4339.213	19.90866
62.16337	4332.317	25.86546
62.21736	4328.998	15.44425
62.27134	4321.499	18.87363
62.32533	4320.443	17.72097
62.37931	4315.22	18.36183
62.4333	4317.733	8.111065
62.48729	4304.457	23.3573
62.54128	4311.96	17.43632
62.59526	4303.482	24.54938
62.64925	4312.035	21.75402
62.70324	4306.795	27.87783
62.75722	4301.198	18.53814
62.81121	4295.365	26.6285
62.86519	4294.435	21.39896
62.91918	4285.938	36.90219
62.97317	4296.227	24.32437
63.02715	4283.238	28.85262
63.08114	4286.07	12.78821
63.13512	4272.438	19.24577
63.18911	4279.434	19.16561
63.2431	4273.389	21.76974
63.29708	4265.318	10.93991
63.35107	4262.689	13.79892
63.40506	4264.775	15.92484
63.45904	4261.662	25.62022
63.51303	4265.57	18.37134
63.56702	4254.004	24.53802
63.621	4261.998	21.38339
63.67499	4250.835	25.02872
63.72897	4254.31	18.25103
63.78296	4244.08	24.83975
63.83695	4247.67	19.01947
63.89093	4244.054	26.54798
63.94492	4241.389	22.75454
63.99891	4234.751	25.24626
64.05289	4237.718	10.39437
64.10688	4233.44	16.71047
64.16087	4245.341	12.8685
64.21485	4234.762	15.59553
64.26884	4234.868	22.56834
64.32282	4225.762	23.74174
64.37681	4226.52	12.87474
64.43079	4220.076	21.64687
64.48479	4228.133	17.169
64.53877	4223.313	23.79066
64.59276	4231.8	19.16083
64.64674	4221.634	15.50808
64.70073	4222.066	21.24039
64.75471	4210.324	22.63357
64.8087	4215.516	16.52712
64.86269	4211.454	20.12644
64.91667	4210.188	17.18868
64.97066	4209.156	14.23573
65.02465	4204.887	20.26601
65.07864	4207.032	22.64141
65.13262	4203.775	21.47712
65.18661	4209.389	14.43165
65.24059	4208.533	18.44176
65.29458	4206.869	13.25912
65.34856	4201.791	19.24601
65.40255	4207.761	13.10524
65.45654	4206.055	23.85517
65.51052	4205.997	18.17946
65.56451	4197.935	19.7653
65.6185	4204.757	12.72713
65.67249	4195.81	20.12893
65.72647	4209.002	18.14302
65.78046	4201.183	22.40938
65.83444	4206.883	15.24884
65.88843	4204.346	23.68647
65.94241	4204.974	22.83448
65.9964	4203.878	27.27487
66.05038	4210.753	14.01436
66.10438	4206.66	22.46851
66.15836	4215.386	11.17409
66.21235	4211.454	23.89403
66.26633	4226.311	24.57855
66.32032	4221.336	27.70118
66.37431	4225.567	21.13762
66.42829	4220.282	19.71319
66.48228	4230.829	22.70931
66.53626	4226.744	31.77048
66.59025	4238.986	18.66737
66.64424	4233.958	30.28636
66.69823	4240.92	22.24141
66.75221	4238.229	27.89443
66.8062	4248.955	21.49497
66.86018	4245.194	29.42288
66.91417	4265.605	19.90838
66.96815	4260.281	24.02492
67.02214	4270.8	12.70577
67.07613	4268.703	22.73827
67.13011	4282.109	18.71632
67.1841	4278.731	25.43745
67.23809	4292.034	16.42949
67.29208	4294.147	28.36046
67.34606	4301.975	19.80464
67.40005	4303.534	30.05943
67.45403	4319.16	22.56407
67.50802	4319.66	38.55906
67.562	4335.364	22.40258
67.61599	4333.857	29.35214
67.66998	4354.833	21.95708
67.72397	4352.196	31.06665
67.77795	4375.898	24.0914
67.83194	4372.629	23.24406
67.88593	4383.626	21.50133
67.93991	4392.19	23.3049
67.9939	4398.176	11.73048
68.04788	4411.062	20.97607
68.10187	4425.814	27.02332
68.15585	4431.605	31.02422
68.20984	4448.973	32.26165
68.26383	4461.415	35.09207
68.31782	4473.933	36.31868
68.3718	4488.822	32.96278
68.42579	4494.769	37.16419
68.47977	4517.356	33.71612
68.53376	4525.964	34.6236
68.58775	4548.614	30.81893
68.64173	4562.089	35.32676
68.69572	4582.789	33.93994
68.7497	4593.881	41.40069
68.8037	4622.18	25.96464
68.85768	4633.803	34.13624
68.91167	4662.054	29.40349
68.96565	4670.647	42.41337
69.01964	4702.77	34.93311
69.07362	4715.125	49.79369
69.12761	4749.688	40.97607
69.18159	4767.84	47.4155
69.23558	4790.647	38.35149
69.28957	4807.557	45.43171
69.34356	4845.47	40.86263
69.39754	4857.107	57.08767
69.45153	4905.669	38.20652
69.50552	4920.368	50.93439
69.5595	4956.43	33.83795
69.61349	4976.604	46.74205
69.66747	5015.311	43.95289
69.72146	5031.554	51.10254
69.77544	5076.421	37.27629
69.82943	5095.878	46.16516
69.88342	5146.384	41.19172
69.93741	5167.757	46.75055
69.99139	5214.734	41.2901
70.04538	5246.726	49.28962
70.09937	5291.011	49.58261
70.15335	5316.026	58.60356
70.20734	5373.757	43.003
70.26132	5397.241	56.66083
70.31531	5458.897	44.19145
70.36929	5485.04	53.61642
70.42329	5547.037	54.92875
70.47727	5583.335	63.83307
70.53126	5646.774	50.11613
70.58524	5682.026	61.17396
70.63923	5741.29	52.55696
70.69321	5781.272	65.46119
70.7472	5850.042	55.77656
70.80119	5892.554	72.48571
70.85517	5967.166	68.11769
70.90916	6012.632	81.15219
70.96315	6079.909	67.84354
71.01714	6128.293	79.06619
71.07112	6209.281	78.62313
71.12511	6257.688	82.10155
71.17909	6322.319	75.48157
71.23308	6372.514	76.19087
71.28706	6439.645	72.55096
71.34105	6497.866	73.53359
71.39503	6562.187	73.97272
71.44902	6627.956	72.01575
71.50301	6681.004	72.52835
71.557	6743.32	65.16155
71.61098	6779.341	78.64747
71.66497	6855.449	71.68002
71.71896	6893.001	90.01871
71.77294	6979.551	69.02348
71.82693	7019.359	84.91225
71.88091	7090.929	77.12138
71.9349	7140.97	90.00356
71.98888	7218.174	82.46683
72.04288	7265.69	97.24259
72.09686	7348.652	83.23745
72.15085	7397.469	96.65376
72.20483	7486.194	85.50454
72.25882	7527.902	99.43817
72.31281	7617.911	75.12989
72.36679	7656.771	84.71574
72.42078	7749.486	68.26024
72.47476	7782.273	82.27425
72.52875	7864.166	59.15052
72.58274	7899.877	70.89523
72.63673	7980.023	53.3251
72.69071	8014.641	69.9237
72.7447	8067.826	54.21139
72.79868	8113.673	66.46665
72.85267	8174.653	57.75509
72.90665	8206.622	70.03197
72.96064	8276.775	52.30954
73.01463	8297.564	60.90569
73.06861	8357.273	48.13511
73.1226	8379.626	62.41464
73.17659	8430.741	43.87621
73.23058	8452.304	57.53978
73.28456	8498.803	38.65186
73.33855	8528.221	46.13935
73.39253	8586.797	31.02716
73.44652	8601.699	46.40336
73.5005	8659.76	34.22318
73.55449	8657.875	50.28842
73.60847	8694.882	34.99092
73.66246	8701.855	43.04837
73.71645	8726.853	38.38693
73.77044	8757.786	37.36
73.82442	8777.009	39.17467
73.87841	8793.652	35.00892
73.9324	8812.803	33.90682
73.98638	8830.246	36.03595
74.04037	8840.366	42.93467
74.09435	8868.381	28.84524
74.14834	8870.021	37.5408
74.20232	8900.659	16.40253
74.25632	8891.705	39.12985
74.3103	8927.633	34.78926
74.36429	8930.689	53.65429
74.41827	8962.363	24.83736
74.47226	8950.082	35.96038
74.52625	8976.202	31.01241
74.58023	8970.843	44.21627
74.63422	9012.255	29.03723
74.6882	9001.95	48.91518
74.74219	9020.216	20.7939
74.79618	9019.663	39.76618
74.85017	9046.413	25.43778
74.90415	9031.533	39.55555
74.95814	9066.898	10.3756
75.01212	9058.445	24.10186
75.06611	9081.727	17.5634
75.12009	9066.782	30.58464
75.17408	9108.505	16.88741
75.22807	9090.264	39.65988
75.28205	9115.812	28.59225
75.33604	9092.367	27.10401
75.39003	9121.124	9.511622
75.44402	9101.018	32.35536
75.498	9132.565	14.63008
75.55199	9127.511	27.44143
75.60597	9147.698	18.30988
75.65996	9137.941	28.68826
75.71394	9157.952	19.41151
75.76793	9147.357	30.05383
75.82191	9170.42	8.149974
75.87591	9156.702	20.94963
75.92989	9182.305	11.34428
75.98388	9166.031	26.25634
76.03786	9195.361	4.38493
76.09185	9187.313	19.87274
76.14584	9204.324	14.16788
76.19982	9190.508	26.79505
76.25381	9195.521	32.38286
76.30779	9188.69	29.45965
76.36178	9186.443	26.05494
76.41577	9199.837	22.26793
76.46976	9189.654	32.14162
76.52374	9209.413	26.39483
76.57773	9193.663	40.33503
76.63171	9210.462	26.7959
76.6857	9196.166	45.12705
76.73969	9215.511	13.31048
76.79367	9192.224	27.3882
76.84766	9214.938	16.57574
76.90164	9199.21	36.60555
76.95564	9226.035	21.11051
77.00962	9203.369	33.60069
77.06361	9226.662	17.55568
77.11759	9205.754	34.13961
77.17158	9224.229	21.63451
77.22556	9220.178	46.51276
77.27955	9229.02	20.25146
77.33353	9211.575	34.62819
77.38752	9227.366	16.46795
77.44151	9205.183	39.84242
77.4955	9236.456	23.53919
77.54948	9227.596	38.76635
77.60347	9244.739	18.4828
77.65746	9220.129	33.049
77.71144	9236.754	11.8366
77.76543	9206.178	31.87263
77.81941	9231.333	21.23742
77.8734	9213.434	30.17777
77.92738	9230.225	21.52067
77.98137	9203.569	33.73123
78.03536	9229.11	14.76518
78.08935	9201.786	28.90836
78.14333	9225.986	11.86314
78.19732	9199.446	26.22367
78.2513	9212.411	25.09098
78.30529	9199.244	25.85165
78.35928	9205.289	27.91564
78.41326	9202.703	23.94646
78.46725	9176.455	26.06953
78.52123	9192.583	30.71828
78.57523	9182.252	38.42489
78.62921	9192.902	32.90435
78.6832	9170.821	35.8997
78.73718	9180.168	33.28633
78.79117	9158.38	42.39541
78.84515	9180.775	31.2917
78.89914	9157.624	38.01332
78.95313	9181.269	23.45953
79.00711	9159.882	37.2541
79.0611	9177.238	31.12685
79.11509	9156.801	34.39032
79.16908	9168.408	28.82151
79.22306	9144.582	39.50088
79.27705	9151.76	30.42192
79.33103	9131.718	39.51062
79.38502	9153.11	24.72489
79.439	9132.92	42.72335
79.49299	9152.182	25.91433
79.54697	9126.621	35.52236
79.60096	9145.452	20.31659
79.65495	9119.842	29.68408
79.70894	9149.039	15.84559
79.76292	9114.897	33.04274
79.81691	9138.719	27.8831
79.8709	9112.484	28.20281
79.92488	9133.677	27.32498
79.97887	9103.449	20.26407
80.03285	9124.108	5.161717
80.08684	9097.382	19.60019
80.14082	9099.443	24.029
80.19482	9094.66	25.46946
80.2488	9086.167	28.99008
80.30279	9089.942	24.02756
80.35677	9077.571	23.49361
80.41076	9084.381	26.4719
80.46474	9064.715	35.35994
80.51873	9077.142	20.43927
80.57272	9053.446	30.0844
80.6267	9067.688	11.99122
80.68069	9043.088	26.28562
80.73468	9071.819	19.55653
80.78867	9045.752	27.85143
80.84265	9067.091	18.27775
80.89664	9041.193	23.62267
80.95062	9054.84	25.19685
81.00461	9025.483	24.9908
81.05859	9034.796	21.34362
81.11258	9016.55	31.70831
81.16656	9042.988	27.63705
81.22055	9012.837	30.80511
81.27454	9032.788	15.64942
81.32853	9004.035	31.31132
81.38251	9026.832	22.05182
81.4365	8997.736	36.70472
81.49049	9023.927	17.69558
81.54447	9000.895	19.37961
81.59846	9022.077	19.02246
81.65244	9000.594	30.84267
81.70643	9009.227	27.75963
81.76041	8984.563	34.85001
81.81441	9012.714	26.7401
81.86839	8992.044	32.902
81.92238	8998.915	24.65565
81.97636	8978.925	31.13971
82.03035	8985.36	17.48019
82.08434	8967.453	30.26829
82.13832	8980.746	25.97516
82.19231	8971.039	24.44561
82.24629	8962.996	24.42883
82.30028	8965.482	16.98756
82.35427	8949.835	16.73459
82.40826	8966.405	12.93711
82.46224	8940.556	25.96613
82.51623	8964.412	12.86133
82.57021	8936.68	19.61037
82.6242	8955.195	20.50065
82.67818	8922.993	34.5859
82.73217	8943.22	19.23652
82.78616	8929.591	31.30215
82.84014	8938.882	29.20605
82.89413	8920.241	40.05241
82.94812	8945.994	9.043375
83.00211	8917.586	33.79865
83.05609	8935.784	16.11375
83.11008	8913.444	35.69627
83.16406	8926.677	15.78786
83.21805	8906.915	37.70382
83.27203	8926.219	25.98347
83.32602	8904.471	30.73989
83.38	8930.469	11.2513
83.434	8893.6	34.41224
83.48798	8918.625	25.27414
83.54197	8900.155	32.4819
83.59595	8911.477	34.7886
83.64994	8879.988	37.44587
83.70393	8897.767	22.22507
83.75791	8879.519	42.21527
83.8119	8895.467	17.71367
83.86588	8866.13	31.24892
83.91987	8898.802	23.22412
83.97386	8874.377	26.59171
84.02785	8891.771	23.85177
84.08183	8860.983	27.59164
84.13582	8877.834	26.60838
84.1898	8853.281	29.35464
84.24379	8848.778	33.19984
84.29778	8847.3	35.28876
84.35176	8851.772	33.12006
84.40575	8845.628	33.23458
84.45973	8843.367	43.0084
84.51373	8840.44	40.04549
84.56771	8813.008	38.95086
84.6217	8835.908	24.6531
84.67568	8815.036	31.69893
84.72967	8816.866	24.96039
84.78365	8786.426	35.43885
84.83764	8815.308	22.20109
84.89162	8779.398	21.41034
84.94561	8799.909	20.08504
84.9996	8773.641	27.184
85.05359	8800.903	34.19262
85.10757	8777.022	48.8209
85.16156	8787.135	30.23112
85.21555	8758.869	33.42981
85.26953	8769.067	30.88079
85.32352	8744.203	48.3418
85.3775	8770.258	30.49483
85.43149	8741.827	42.11601
85.48547	8747.521	26.1431
85.53946	8719.978	38.86103
85.59345	8749.827	25.84909
85.64744	8711.061	24.43387
85.70142	8721.986	28.35638
85.75541	8691.302	33.45249
85.80939	8709.185	28.29749
85.86338	8687.597	38.13776
85.91737	8708.408	40.38838
85.97135	8672.598	43.7475
86.02534	8690.185	26.73666
86.07932	8659.818	32.93282
86.13332	8678.279	30.82092
86.1873	8644.76	36.79692
86.24129	8656.467	33.44715
86.29527	8620.717	23.89415
86.34926	8645.261	29.14349
86.40324	8620.824	27.62513
86.45723	8640.021	36.6523
86.51122	8599.203	29.03304
86.5652	8611.939	38.81129
86.61919	8584.226	31.16606
86.67317	8609.126	35.08387
86.72717	8568.687	29.47077
86.78115	8578.466	32.23306
86.83514	8540.213	29.79149
86.88912	8560.808	26.45473
86.94311	8535.03	25.81396
86.99709	8538.254	34.36874
87.05108	8507.872	26.51478
87.10506	8513.5	30.90313
87.15905	8494.3	25.09254
87.21304	8504.571	32.66422
87.26703	8483.396	26.71116
87.32101	8488.878	33.45601
87.375	8464.191	31.48011
87.42899	8454.43	30.47409
87.48297	8439.646	28.77479
87.53696	8428.789	26.7492
87.59094	8428.712	32.24232
87.64493	8413.972	36.07956
87.69891	8412.403	25.8287
87.7529	8390	23.11747
87.80689	8387.437	19.40164
87.86088	8362.338	21.59683
87.91486	8375.334	26.02482
87.96885	8337.77	36.11925
88.02283	8349.176	38.38181
88.07682	8321.599	47.16917
88.13081	8328.703	37.5874
88.18479	8298.188	50.1891
88.23878	8320.569	33.53232
88.29276	8274.332	37.14853
88.34676	8290.093	20.69745
88.40074	8252.388	32.57859
88.45473	8279.353	27.81542
88.50871	8249.643	36.91952
88.5627	8254.939	12.3647
88.61668	8217.172	28.81768
88.67067	8241.465	22.0092
88.72466	8213.067	19.62415
88.77864	8215.658	25.28265
88.83263	8185.012	32.72883
88.88662	8197.092	24.72602
88.94061	8159.494	35.80915
88.99459	8178.124	34.65379
89.04858	8151.418	32.39347
89.10256	8160.068	34.54876
89.15655	8122.453	41.94167
89.21053	8141.642	24.85369
89.26452	8106.44	36.8285
89.3185	8116.557	27.72735
89.37249	8083.503	30.07154
89.42648	8104.648	38.27441
89.48047	8072.564	32.05766
89.53445	8092.183	35.95504
89.58844	8050.735	24.3457
89.64243	8064.766	27.60069
89.69641	8026.179	24.3933
89.7504	8037.324	30.32082
89.80438	8011.417	31.95985
89.85837	8017.991	36.38256
89.91235	7987.504	32.47508
89.96635	8001.959	29.89178
90.02033	7965.988	36.57446
90.07432	7976.894	31.30948
90.1283	7945.304	33.89322
90.18229	7967.103	31.28225
90.23627	7933.493	25.14077
90.29026	7932.247	39.98587
90.34425	7902.104	35.37576
90.39823	7916.979	33.38213
90.45222	7894.65	36.93384
90.50621	7895.834	32.96082
90.5602	7865.857	33.16802
90.61418	7879.518	32.03427
90.66817	7854.017	34.55532
90.72215	7874.913	34.24581
90.77614	7844.808	36.72038
90.83012	7853.085	42.97401
90.88411	7817.494	36.6778
90.9381	7825.181	33.05529
90.99208	7800.327	25.45492
91.04607	7782.637	24.74222
91.10006	7771.834	19.99616
91.15405	7765.107	22.27522
91.20803	7756.416	25.81895
91.26202	7742.101	24.99945
91.316	7732.424	25.75507
91.36999	7720.513	24.98121
91.42397	7715.989	25.53542
91.47796	7702.345	25.78111
91.53194	7693.428	22.4893
91.58594	7659.244	25.04564
91.63992	7669.258	20.35241
91.69391	7645.204	25.717
91.74789	7653.834	20.86939
91.80188	7621.709	23.09451
91.85587	7636.176	25.26673
91.90985	7597.403	39.10835
91.96384	7604.024	25.38165
92.01782	7576.03	27.8573
92.07181	7596.576	26.09352
92.1258	7568.11	27.93287
92.17979	7593.429	37.5213
92.23377	7553.002	29.1317
92.28776	7565.446	19.93931
92.34174	7529.874	22.0822
92.39573	7536.228	26.79945
92.44971	7514.52	29.14518
92.5037	7528.66	20.7968
92.55769	7493.638	21.62217
92.61167	7507.864	18.70746
92.66566	7472.801	28.63792
92.71965	7484.648	29.15788
92.77364	7461.439	23.18669
92.82762	7460.915	17.72331
92.88161	7433.43	20.35639
92.93559	7443.173	24.89328
92.98958	7416.303	29.59645
93.04356	7419.961	30.19456
93.09755	7390.397	32.95256
93.15154	7402.96	29.85249
93.20553	7365.579	18.70329
93.25951	7385.996	27.82606
93.3135	7354.685	19.52879
93.36749	7370.86	36.34734
93.42147	7338.2	27.98904
93.47546	7342.521	28.52125
93.52944	7312.952	21.93102
93.58343	7327.297	26.34337
93.63741	7293.996	24.1021
93.6914	7296.154	29.32022
93.74539	7267.895	21.11829
93.79938	7288.479	28.28886
93.85336	7258.356	16.10283
93.90735	7270.523	32.09913
93.96133	7239.554	28.77141
94.01532	7244.376	29.35441
94.06931	7212.818	35.24708
94.12329	7233.448	33.3601
94.17728	7192.769	30.33165
94.23126	7203.33	30.21229
94.28526	7171.532	32.52103
94.33924	7173.444	22.54533
94.39323	7139.427	33.07013
94.44721	7147.773	23.88205
94.5012	7144.601	23.42182
94.55518	7116.422	21.37142
94.60917	7118.945	19.74797
94.66315	7128.289	25.02463
94.71714	7079.285	25.45346
94.77113	7070.22	21.83307
94.82512	7071.242	20.72447
94.8791	7050.609	15.26686
94.93309	7072.887	16.74538
94.98708	7059.012	29.08334
