T[Â°C]	330nm [counts / mm]	S.D.
20.00043	3270.681	88.68403
20.05438	3271.331	85.74283
20.10833	3264.284	85.07642
20.16228	3263.055	87.38824
20.21623	3261.007	85.22272
20.27018	3259.792	86.44626
20.32413	3252.806	89.28529
20.37808	3254.226	87.63004
20.43203	3252.265	87.22608
20.48598	3246.742	87.29732
20.53993	3244.513	83.11727
20.59388	3245.866	81.66627
20.64783	3240.043	82.18977
20.70178	3239.506	81.48584
20.75573	3234.652	86.11168
20.80968	3226.623	86.80557
20.86363	3234.286	90.59456
20.91758	3226.911	90.65438
20.97153	3226.104	80.10945
21.02548	3222.5	83.18605
21.07943	3222.234	85.77621
21.13338	3217.87	85.87627
21.18733	3215.603	83.56394
21.24128	3210.971	87.40849
21.29523	3209.68	86.75736
21.34918	3207.545	89.21918
21.40313	3211.82	82.17279
21.45708	3203.482	82.17616
21.51103	3202.347	81.08737
21.56498	3198.558	81.02319
21.61893	3193.352	84.30769
21.67288	3192.899	86.45068
21.72683	3187.81	89.4509
21.78078	3187.653	86.45419
21.83473	3184.813	82.01626
21.88868	3183.97	85.34884
21.94263	3184.263	84.46471
21.99658	3180.015	85.05084
22.05053	3182.523	86.80006
22.10448	3178.103	87.62094
22.15843	3174.662	86.32938
22.21238	3169.365	86.14735
22.26632	3169.508	79.64242
22.32027	3166.9	84.24236
22.37423	3163.624	86.83102
22.42817	3160.342	84.91581
22.48212	3152.423	83.36831
22.53607	3151.575	82.68472
22.59002	3151.453	87.15734
22.64397	3153.495	87.24634
22.69792	3150.256	86.52806
22.75187	3148.119	84.90636
22.80582	3147.651	81.4965
22.85977	3143.061	81.81443
22.91372	3141.819	85.05834
22.96767	3138.582	79.98566
23.02162	3131.184	84.03011
23.07557	3127.723	85.73579
23.12952	3129.709	87.09509
23.18347	3124.534	85.66737
23.23742	3123.219	83.01332
23.29137	3122.2	86.23668
23.34532	3119.591	85.09473
23.39927	3116.529	81.60149
23.45322	3112.687	81.9927
23.50717	3111.631	79.26649
23.56112	3110.64	78.29982
23.61507	3107.659	79.94079
23.66902	3105.649	85.38709
23.72297	3104.563	84.35788
23.77692	3102.908	83.66389
23.83087	3097.574	81.47254
23.88482	3097.195	82.85107
23.93877	3097.466	83.95919
23.99272	3094.68	85.84805
24.04667	3087.632	77.92296
24.10062	3084.065	78.15604
24.15457	3085.123	81.42447
24.20852	3083.2	78.72144
24.26247	3085.33	80.20555
24.31642	3080.935	74.73698
24.37037	3071.531	79.21913
24.42432	3069.886	76.62705
24.47827	3071.962	78.66643
24.53222	3071.664	82.27981
24.58617	3068.884	80.3863
24.64012	3064.832	82.3112
24.69407	3059.556	76.256
24.74802	3060.748	82.29446
24.80197	3061.301	80.25037
24.85592	3056.348	75.97577
24.90987	3052.96	79.35129
24.96382	3052.032	84.19799
25.01777	3048.874	80.98497
25.07172	3044.423	85.2167
25.12567	3041.486	76.44937
25.17962	3042.102	79.47833
25.23357	3041.876	79.9316
25.28752	3036.689	80.83936
25.34146	3036.483	76.59534
25.39541	3032.004	76.755
25.44937	3029.975	81.05294
25.50331	3026.223	80.28495
25.55726	3025.638	76.53217
25.61121	3022.429	78.21195
25.66516	3021.855	81.02654
25.71911	3018.257	82.12344
25.77306	3017.837	84.71014
25.82701	3014.596	84.69205
25.88096	3013.795	79.0379
25.93491	3009.548	83.61303
25.98886	3007.565	73.53918
26.04281	3001.75	76.30309
26.09676	2996.692	79.28497
26.15071	2999.386	76.74004
26.20466	3000.206	70.21127
26.25861	2999.54	76.04
26.31256	2989.75	79.09032
26.36651	2991.14	78.3214
26.42046	2988.4	77.24561
26.47441	2987.941	78.48606
26.52836	2987.893	79.15158
26.58231	2983.052	76.84123
26.63626	2978.585	77.89564
26.69021	2976.722	80.98612
26.74416	2973.201	85.42134
26.79811	2970.206	82.26798
26.85206	2970.134	76.57437
26.90601	2968.756	78.11743
26.95996	2966.116	80.01098
27.01391	2962.613	81.46153
27.06786	2958.626	80.65808
27.12181	2957.202	76.71022
27.17576	2958.831	75.42476
27.22971	2955.026	76.21612
27.28366	2949.867	77.93933
27.33761	2949.276	75.85258
27.39156	2945.837	76.42306
27.44551	2942.584	74.59516
27.49946	2940.388	73.7968
27.55341	2940.644	74.60678
27.60736	2940.509	75.4364
27.66131	2935.755	79.58546
27.71526	2936.308	78.66135
27.76921	2931.837	76.49475
27.82316	2927.384	76.13441
27.87711	2927.364	74.86647
27.93106	2926.732	75.20506
27.98501	2918.24	72.96024
28.03896	2913.073	67.28614
28.09291	2920.04	79.09799
28.14686	2915.053	77.19814
28.20081	2912.971	74.86518
28.25476	2909.368	78.05222
28.3087	2910.189	74.68276
28.36266	2908.571	80.16798
28.4166	2903.27	74.71974
28.47055	2901.137	72.28895
28.5245	2898.117	73.80501
28.57845	2897.761	75.27933
28.6324	2894.553	74.00183
28.68635	2889.911	73.18942
28.7403	2890.001	73.25686
28.79425	2887.904	77.74335
28.8482	2883.827	79.12446
28.90215	2883.906	79.6869
28.9561	2880.578	71.64888
29.01005	2879.869	74.6528
29.064	2878.117	79.32102
29.11795	2872.819	77.21928
29.1719	2878.119	77.30679
29.22585	2871.554	74.15767
29.2798	2866.837	75.78951
29.33375	2867.009	75.12002
29.3877	2864.597	75.30604
29.44165	2861.849	75.00642
29.4956	2858.414	75.15395
29.54955	2855.903	72.32896
29.6035	2854.485	73.15298
29.65745	2852.396	75.06155
29.7114	2851.573	71.06216
29.76535	2851.241	72.73713
29.8193	2846.706	74.92042
29.87325	2845.261	75.43789
29.9272	2839.744	75.38183
29.98115	2841.831	78.28945
30.0351	2841.089	77.18581
30.08905	2838.179	73.95537
30.143	2833.506	76.0852
30.19695	2831.359	72.38395
30.2509	2833.099	80.38343
30.30485	2826.953	77.98353
30.3588	2825.307	74.68324
30.41275	2822.944	73.46937
30.4667	2821.276	75.88397
30.52065	2816.345	75.51495
30.5746	2808.912	72.62931
30.62855	2805.701	71.41206
30.6825	2802.687	74.6536
30.73645	2804.16	76.15551
30.7904	2806.828	73.19678
30.84435	2805.385	74.3211
30.8983	2803.105	76.10104
30.95225	2799.747	72.63014
31.0062	2798.211	71.5639
31.06015	2796.264	74.02475
31.1141	2792.959	74.05524
31.16805	2789.988	72.25569
31.222	2791.189	72.90526
31.27595	2790.135	73.44271
31.3299	2787.45	70.42509
31.38384	2783.362	70.436
31.4378	2783.559	72.58243
31.49174	2778.029	69.0453
31.54569	2775.678	69.82946
31.59964	2773.686	71.56767
31.65359	2771.836	64.39036
31.70754	2769.53	72.60027
31.76149	2768.418	75.28101
31.81544	2769.799	71.2394
31.86939	2766.914	78.20166
31.92334	2764.434	69.93216
31.97729	2760.509	68.84842
32.03124	2756.558	70.09628
32.08519	2759.086	76.01786
32.13914	2751.559	68.9553
32.19309	2750.339	75.15949
32.24704	2750.752	73.49277
32.30099	2746.638	70.44386
32.35494	2742.249	64.56005
32.40889	2739.906	68.2265
32.46284	2738.727	72.46018
32.51679	2735.712	70.40415
32.57074	2737.868	69.59341
32.62469	2734.294	68.47121
32.67864	2731.449	71.47873
32.73259	2729.771	69.93175
32.78654	2724.535	68.12364
32.84049	2723.947	71.19615
32.89444	2725.844	73.15471
32.94839	2721.968	69.27305
33.00234	2714.613	80.11393
33.05629	2712.653	71.07175
33.11024	2712.034	68.87643
33.16419	2710.584	67.17111
33.21814	2709.44	70.32209
33.27209	2708.041	70.84145
33.32604	2703.71	71.54289
33.37999	2705.255	70.35949
33.43394	2697.912	67.58746
33.48789	2700.145	71.67202
33.54184	2698.409	69.97514
33.59579	2692.83	70.30659
33.64974	2697.09	65.97955
33.70369	2691.815	65.93648
33.75764	2688.312	68.69944
33.81159	2688.03	70.36681
33.86554	2680.348	76.81194
33.91949	2679.632	75.38268
33.97343	2677.371	75.66428
34.02739	2676.864	74.90564
34.08134	2672.584	74.4315
34.13528	2670.93	77.09693
34.18924	2670.053	68.9142
34.24319	2668.747	67.71651
34.29713	2665.249	67.86805
34.35109	2664.818	68.6914
34.40503	2659.918	69.91985
34.45898	2660.774	67.88715
34.51294	2659.771	67.50759
34.56688	2653.397	69.7353
34.62083	2651.038	67.98189
34.67479	2650.967	65.22665
34.72873	2649.543	66.73532
34.78268	2646.317	68.11704
34.83663	2646.074	68.65405
34.89058	2643.94	70.97647
34.94453	2642.66	66.8802
34.99848	2637.727	65.31903
35.05243	2633.731	65.87122
35.10638	2634.353	70.25062
35.16033	2635.931	69.80407
35.21428	2633.244	65.61989
35.26823	2631.04	69.93
35.32218	2627.39	68.84917
35.37613	2627.216	67.39568
35.43008	2623.804	64.58926
35.48403	2625.229	69.94308
35.53798	2618.946	64.97353
35.59193	2614.657	71.55998
35.64588	2616.476	65.58828
35.69983	2615.013	64.53093
35.75378	2606.267	66.06771
35.80773	2606.452	66.73575
35.86168	2601.761	69.20188
35.91563	2604.009	65.36062
35.96958	2602.01	70.51387
36.02353	2599.011	75.74722
36.07748	2598.781	72.75498
36.13143	2594.023	70.31985
36.18538	2593.038	73.05499
36.23933	2592.313	67.44064
36.29328	2588.767	68.26844
36.34723	2590.212	62.98953
36.40118	2583.564	71.59495
36.45513	2583.279	66.52147
36.50908	2577.839	71.40489
36.56303	2578.834	66.28724
36.61698	2578.59	66.56417
36.67093	2577.746	68.34853
36.72488	2567.483	67.70708
36.77883	2568.375	67.48332
36.83278	2568.154	70.63081
36.88673	2572.844	69.12804
36.94068	2561.549	69.91176
36.99463	2565.365	70.58302
37.04858	2560.111	64.86301
37.10253	2560.353	67.09279
37.15648	2556.837	69.49351
37.21043	2552.738	68.89001
37.26437	2549.352	67.24446
37.31833	2550.008	64.41056
37.37228	2548.919	62.74699
37.42622	2545.768	66.19129
37.48018	2543.136	70.85912
37.53412	2541.79	72.52213
37.58807	2540.417	70.3037
37.64202	2534.717	67.92907
37.69597	2533.597	63.91364
37.74992	2534.036	64.07977
37.80387	2529.672	64.07736
37.85782	2528.816	61.76079
37.91177	2524.99	65.10635
37.96572	2529.365	70.5294
38.01967	2526.421	66.37496
38.07362	2522.424	65.81345
38.12757	2519.347	67.93704
38.18152	2516.515	64.59319
38.23547	2513.721	64.24792
38.28942	2512.571	64.24184
38.34337	2509.262	62.20615
38.39732	2509.808	63.23673
38.45127	2509.493	65.56009
38.50522	2504.9	63.58519
38.55917	2503.807	60.04863
38.61312	2500.881	60.6727
38.66707	2498.989	62.73882
38.72102	2497.203	63.85839
38.77497	2493.572	64.9183
38.82892	2488.118	67.22926
38.88287	2488.141	67.97759
38.93682	2488.904	65.11265
38.99077	2490.024	64.5361
39.04472	2486.193	65.80037
39.09867	2486.06	64.93534
39.15262	2482.568	68.60876
39.20657	2486.654	66.05248
39.26052	2477.842	62.73972
39.31447	2475.304	59.72838
39.36842	2468.626	62.26874
39.42237	2471.205	59.99156
39.47632	2463.683	58.97633
39.53027	2463.982	57.618
39.58422	2462.694	60.14171
39.63817	2461.082	60.3652
39.69212	2461.848	64.316
39.74607	2460.798	65.66544
39.80002	2453.772	63.61815
39.85397	2455.463	61.11544
39.90792	2453.183	63.22186
39.96186	2453.623	58.49841
40.01582	2446.123	64.67991
40.06977	2443.895	60.4329
40.12371	2444.644	63.38054
40.17767	2443.942	64.86051
40.23162	2437.875	62.73767
40.28556	2442.841	62.51905
40.33952	2437.318	63.75019
40.39346	2440.68	62.15857
40.44741	2430.708	65.85017
40.50137	2431.547	64.61666
40.55531	2425.119	61.55696
40.60926	2427.362	61.68505
40.66322	2429.18	63.99055
40.71716	2427.936	56.65393
40.77111	2423.771	66.93856
40.82506	2421.682	62.46182
40.87901	2414.436	66.17606
40.93296	2414.496	64.70593
40.98691	2412.84	58.84357
41.04086	2409.381	62.90641
41.09481	2410.877	65.0475
41.14876	2409.796	61.83696
41.20271	2405.679	64.52312
41.25666	2404.394	64.73456
41.31061	2401.936	64.3045
41.36456	2401.104	63.86914
41.41851	2396.587	60.48933
41.47246	2396.294	61.8167
41.52641	2395.052	62.01711
41.58036	2393.076	60.49942
41.63431	2392.482	61.38799
41.68826	2391.831	58.73924
41.74221	2389.621	57.3819
41.79616	2387.034	59.9348
41.85011	2385.474	59.93801
41.90406	2381.904	58.49083
41.95801	2376.007	60.35898
42.01196	2375.011	59.84681
42.06591	2375.951	57.79788
42.11986	2373.4	61.48138
42.17381	2373.658	62.3864
42.22776	2370.88	58.32117
42.28171	2367.878	61.51203
42.33566	2365.709	61.35628
42.38961	2366.025	62.23732
42.44356	2363.509	63.60254
42.49751	2363.086	63.79303
42.55146	2355.792	61.08561
42.60541	2357.165	60.55175
42.65936	2355.464	61.84568
42.71331	2358.193	61.43026
42.76726	2349.935	59.29127
42.82121	2348.154	59.82718
42.87516	2340.961	60.51202
42.92911	2339.416	60.35975
42.98306	2342.422	58.7552
43.03701	2346.285	56.8298
43.09095	2339.371	59.42538
43.14491	2335.484	56.76766
43.19886	2332.084	62.34222
43.2528	2333.696	62.3976
43.30676	2327.062	60.78871
43.36071	2328.811	63.62797
43.41465	2324.272	63.43404
43.46861	2329.843	59.91938
43.52255	2323.486	61.34855
43.5765	2324.257	57.98634
43.63046	2317.552	59.8961
43.6844	2319.011	61.79279
43.73835	2318.833	62.04616
43.7923	2320.183	59.82308
43.84625	2313.426	57.05043
43.9002	2314.179	57.00497
43.95415	2309.747	56.31341
44.0081	2309.24	60.19902
44.06205	2303.613	58.90546
44.116	2304.994	52.61122
44.16995	2298.361	59.86139
44.2239	2299.138	61.54992
44.27785	2294.594	67.07482
44.3318	2294.679	60.71593
44.38575	2289.414	64.13888
44.4397	2289.539	63.38164
44.49365	2283.973	64.69543
44.5476	2285.73	58.37768
44.60155	2283.685	61.23392
44.6555	2284.979	56.98707
44.70945	2282.825	57.74438
44.7634	2282.509	57.90322
44.81735	2271.799	57.86443
44.8713	2274.413	56.54948
44.92525	2272.025	61.245
44.9792	2270.268	58.96335
45.03315	2266.716	54.33685
45.0871	2268.815	58.92537
45.14105	2266.802	59.13608
45.195	2265.876	59.67215
45.24895	2261.84	56.64785
45.3029	2260.83	57.66559
45.35685	2258.993	55.69252
45.4108	2258.357	52.37536
45.46475	2255.828	52.14203
45.5187	2253.575	52.60879
45.57265	2253.91	55.0183
45.6266	2250.779	57.44529
45.68055	2249.897	53.43466
45.7345	2249.131	57.0105
45.78845	2246.845	62.18164
45.8424	2243.34	61.25795
45.89635	2247.265	59.69788
45.95029	2239.735	57.36164
46.00425	2236.922	56.62819
46.0582	2234.116	57.74161
46.11214	2236.066	60.36114
46.1661	2233.915	57.00048
46.22005	2232.353	55.13379
46.27399	2227.812	53.39446
46.32795	2231.518	51.42657
46.38189	2223.09	52.76769
46.43584	2223.952	51.61786
46.4898	2217.649	59.45945
46.54374	2221.624	55.37515
46.59769	2215.019	59.70885
46.65165	2217.691	59.26303
46.70559	2213.072	55.66602
46.75954	2212.984	56.24725
46.81349	2214.29	55.50829
46.86744	2211.721	55.05124
46.92139	2205.425	56.62307
46.97534	2205.725	55.59693
47.02929	2197.53	59.904
47.08324	2200.392	58.71723
47.13719	2197.44	55.38673
47.19114	2199.135	51.27948
47.24509	2195.865	53.81054
47.29904	2199.04	55.18745
47.35299	2190.938	55.17139
47.40694	2195.704	56.55107
47.46089	2185.984	56.47818
47.51484	2187.949	61.4961
47.56879	2186.26	57.30988
47.62274	2185.142	55.30396
47.67669	2183.147	58.12756
47.73064	2182.718	53.86494
47.78459	2175.15	56.98412
47.83854	2176.016	52.83531
47.89249	2173.919	59.1061
47.94644	2173.58	57.74897
48.00039	2163.582	58.19225
48.05434	2167.256	55.69349
48.10829	2165.457	61.05944
48.16224	2165.551	55.41026
48.21619	2161.535	50.7567
48.27014	2163.33	50.91679
48.32409	2154.472	53.64985
48.37804	2157.33	55.49586
48.43199	2154.015	53.10332
48.48594	2154.034	55.74293
48.53989	2153.614	55.37698
48.59384	2153.681	56.1966
48.64779	2149.775	55.39994
48.70174	2147.942	54.43742
48.75569	2145.083	54.11767
48.80964	2145.191	54.06615
48.86359	2140.737	57.39789
48.91754	2137.688	55.61599
48.97149	2136.847	52.02401
49.02544	2131.361	52.77013
49.07938	2130.684	52.29007
49.13334	2131.878	54.59086
49.18729	2131.029	53.12618
49.24123	2126.958	49.50543
49.29519	2126.867	51.80781
49.34914	2124.081	54.95024
49.40308	2122.531	56.10118
49.45704	2120.318	53.91473
49.51098	2121.756	52.22499
49.56493	2119.411	51.32781
49.61889	2116.878	54.57632
49.67283	2114.747	59.40657
49.72678	2117.749	57.72872
49.78074	2107.837	54.21044
49.83468	2112.13	55.54314
49.88863	2106.428	53.61372
49.94258	2108.863	51.38055
49.99653	2101.493	52.64594
50.05048	2104.521	50.27344
50.10443	2098.842	53.77296
50.15838	2100.725	51.68435
50.21233	2096.959	52.33004
50.26628	2098.164	49.02943
50.32023	2092.524	52.30049
50.37418	2095.831	50.915
50.42813	2089.534	54.03944
50.48208	2090.568	52.39638
50.53603	2087.351	53.19513
50.58998	2086.974	51.55614
50.64393	2084.71	56.68971
50.69788	2084.472	54.92795
50.75183	2075.33	57.60777
50.80578	2078.156	55.02582
50.85973	2076.183	55.29395
50.91368	2080.508	52.80983
50.96763	2069.273	55.10185
51.02158	2072.107	53.75537
51.07553	2068.041	53.55472
51.12948	2070.199	51.74737
51.18343	2065.597	54.85527
51.23738	2064.317	51.67281
51.29133	2058.315	57.14398
51.34528	2058.214	54.55561
51.39923	2055.535	53.83789
51.45318	2055.496	54.62579
51.50713	2054.59	54.32047
51.56108	2052.723	53.17147
51.61503	2049.338	53.35952
51.66898	2051.16	52.59273
51.72293	2042.858	54.65437
51.77688	2044.163	52.7476
51.83083	2037.643	56.50057
51.88478	2041.542	50.389
51.93872	2038.159	50.07583
51.99268	2042.19	51.51822
52.04663	2035.657	51.11625
52.10057	2036.996	50.48109
52.15453	2032.646	45.65003
52.20848	2033.614	47.23088
52.26242	2029.491	49.78752
52.31638	2029.965	48.52301
52.37032	2028.728	48.8512
52.42427	2027.312	49.99777
52.47823	2025.158	52.42276
52.53217	2024.338	52.50948
52.58612	2022.727	52.36902
52.64007	2021.547	50.89475
52.69402	2020.86	49.95125
52.74797	2019.707	51.99717
52.80192	2016.7	52.29243
52.85587	2014.809	50.6498
52.90982	2014.779	50.35788
52.96377	2008.672	48.85868
53.01772	2010.264	47.05477
53.07167	2006.468	51.09483
53.12562	2009.845	51.28578
53.17957	2002.67	50.19786
53.23352	2003.542	54.47223
53.28747	1996.782	53.7717
53.34142	1997.752	50.84481
53.39537	1991.773	52.08446
53.44932	1992.905	47.95524
53.50327	1993.321	47.58015
53.55722	1994.364	49.32487
53.61117	1991.412	48.19255
53.66512	1993.024	43.9529
53.71907	1985.587	52.98276
53.77302	1985.58	52.31423
53.82697	1981.978	50.83091
53.88092	1982.333	44.9602
53.93487	1979.778	48.23711
53.98882	1981.495	45.44145
54.04277	1973.838	50.84511
54.09672	1978.189	50.3525
54.15067	1970.131	50.2198
54.20462	1971.831	49.2803
54.25857	1966.48	50.85789
54.31252	1969.329	48.08632
54.36647	1962.384	49.5101
54.42042	1964.944	49.78521
54.47437	1961.086	47.26931
54.52832	1964.264	47.55982
54.58227	1957.023	47.29957
54.63622	1960.981	47.40969
54.69017	1955.508	48.55287
54.74412	1958.097	47.83788
54.79807	1947.367	52.56524
54.85202	1948.949	49.98262
54.90597	1944.759	50.21309
54.95992	1945.745	47.73911
55.01387	1943.494	50.86508
55.06781	1947.225	49.6131
55.12177	1941.128	48.57314
55.17572	1939.74	48.09132
55.22966	1935.624	48.17992
55.28362	1936.508	49.08868
55.33757	1934.562	46.47109
55.39151	1933.694	47.54222
55.44547	1931.944	50.53319
55.49941	1929.557	50.11036
55.55336	1929.976	50.22018
55.60732	1928.285	49.44263
55.66126	1933.583	48.10194
55.71521	1926.753	48.16011
55.76917	1929.952	50.77353
55.82311	1921.485	48.8128
55.87706	1923.481	49.95685
55.93101	1920.723	47.0374
55.98496	1919.42	44.61741
56.03891	1914.208	47.21912
56.09286	1916.293	46.4079
56.14681	1910.013	46.90789
56.20076	1912.315	43.68173
56.25471	1905.768	44.85658
56.30866	1907.644	44.68848
56.36261	1901.554	47.04581
56.41656	1904.634	46.00156
56.47051	1901.593	46.62035
56.52446	1903.413	47.36129
56.57841	1895.522	46.48121
56.63236	1899.196	49.85746
56.68631	1892.707	43.81299
56.74026	1896.217	47.75785
56.79421	1894.9	46.05271
56.84816	1896.212	44.95079
56.90211	1889.177	46.35517
56.95606	1885.84	47.98959
57.01001	1882.46	47.19927
57.06396	1887.836	50.14119
57.11791	1880.541	47.931
57.17186	1882.173	44.89367
57.22581	1876.102	48.8277
57.27976	1881.011	46.30087
57.33371	1870.208	46.89693
57.38766	1877.549	43.40465
57.44161	1871.65	46.86501
57.49556	1874.895	46.09512
57.54951	1865.127	45.92278
57.60346	1868.8	46.5177
57.65741	1864.722	45.69714
57.71136	1865.452	46.56703
57.76531	1865.351	47.18599
57.81926	1863.634	45.94635
57.87321	1861.477	48.35471
57.92715	1861.532	47.8052
57.98111	1858.621	45.30583
58.03506	1856.869	46.48101
58.089	1854.213	47.11029
58.14296	1851.26	45.11774
58.1969	1851.602	44.90381
58.25085	1850.135	47.52067
58.30481	1851.755	48.23046
58.35875	1849.817	47.79192
58.4127	1850.032	49.12537
58.46666	1845.008	48.14867
58.5206	1851.035	49.48271
58.57455	1842.412	45.25308
58.6285	1845.507	47.17923
58.68245	1841.107	48.18354
58.7364	1839.485	45.56625
58.79035	1835.595	47.98403
58.8443	1834.014	46.94275
58.89825	1828.553	47.90767
58.9522	1833.551	46.08987
59.00615	1828.057	46.56459
59.0601	1832.93	43.92568
59.11405	1821.7	46.76155
59.168	1824.875	45.99987
59.22195	1821.831	46.33685
59.2759	1825.422	44.48671
59.32985	1816.83	44.85963
59.3838	1819.331	44.02994
59.43775	1815.703	44.62438
59.4917	1818.666	43.08377
59.54565	1811.442	46.03916
59.5996	1817.729	47.32653
59.65355	1809.082	44.83594
59.7075	1813.922	42.15472
59.76145	1806.696	50.18713
59.8154	1807.703	42.55107
59.86935	1800.899	42.37557
59.9233	1805.824	42.81641
59.97725	1798.762	45.30938
60.0312	1801.004	41.79405
60.08515	1795.094	46.41894
60.1391	1796.951	42.88934
60.19305	1791.585	44.55502
60.247	1793.921	44.74542
60.30095	1790.484	48.08643
60.3549	1794.776	45.81522
60.40885	1786.493	42.34608
60.4628	1791.069	43.22339
60.51675	1784.352	43.6715
60.5707	1786.161	42.25999
60.62465	1784.864	42.2947
60.6786	1784.401	42.27628
60.73255	1782.5	44.73098
60.7865	1782.724	45.87689
60.84045	1778.672	45.42463
60.8944	1778.057	43.38881
60.94835	1775.721	43.20268
61.0023	1774.727	45.59076
61.05624	1774.797	45.10209
61.1102	1772.384	42.5836
61.16415	1772.615	42.99162
61.21809	1769.504	42.2895
61.27205	1770.472	42.33833
61.326	1768.565	46.84441
61.37994	1771.629	44.54467
61.4339	1762.663	43.05607
61.48784	1765.418	42.11948
61.54179	1759.924	42.67341
61.59575	1761.203	39.6154
61.64969	1755.903	44.81089
61.70364	1758.152	43.1846
61.7576	1754.313	44.16383
61.81154	1758.873	44.56985
61.86549	1751.151	43.2803
61.91944	1756.799	42.26162
61.97339	1750.572	46.62173
62.02734	1751.3	43.73425
62.08129	1744.472	47.45781
62.13524	1749.237	46.11916
62.18919	1740.933	47.86488
62.24314	1744.198	46.49632
62.29709	1743.072	45.75575
62.35104	1745.892	42.94635
62.40499	1736.746	42.11792
62.45894	1740.089	42.03371
62.51289	1733.697	43.72676
62.56684	1736.961	46.92709
62.62079	1732.39	42.83856
62.67474	1732.125	40.99606
62.72869	1727.875	46.52439
62.78264	1729.37	42.76042
62.83659	1730.084	47.13924
62.89054	1731.948	42.05074
62.94449	1722.64	47.33287
62.99844	1725.878	43.02752
63.05239	1723.16	46.00485
63.10634	1726.329	42.61673
63.16029	1720.331	42.59673
63.21424	1723.851	40.38881
63.26819	1721.54	42.49248
63.32214	1725.409	39.21175
63.37609	1716.435	39.12197
63.43004	1717.718	42.47468
63.48399	1714.848	44.78869
63.53794	1716.78	42.43501
63.59189	1710.548	41.45494
63.64584	1713.151	41.75589
63.69979	1709.783	41.08433
63.75374	1711.423	41.75631
63.80769	1710.705	44.6763
63.86164	1710.375	43.13617
63.91558	1707.247	43.40422
63.96954	1705.859	44.37292
64.02348	1702.883	44.19437
64.07744	1702.04	43.30376
64.13139	1701.516	43.08714
64.18533	1702.693	43.99767
64.23929	1703.084	43.06197
64.29324	1702.771	44.21904
64.34718	1705.243	46.99184
64.40113	1698.933	43.26433
64.45509	1698.304	41.44501
64.50903	1696.034	40.75813
64.56298	1696.513	41.72119
64.61694	1697.46	43.08702
64.67088	1701.631	43.17704
64.72483	1691.609	41.49055
64.77879	1695.063	44.32507
64.83273	1691.192	45.10077
64.88668	1692.432	43.35456
64.94064	1691.165	43.13178
64.99458	1694.521	41.17943
65.04853	1689.782	40.55466
65.10249	1691.274	39.70271
65.15643	1686.064	42.45467
65.21038	1691.78	40.09728
65.26433	1684.706	44.15902
65.31828	1687.458	45.13534
65.37223	1681.975	44.7427
65.42618	1685.014	43.64969
65.48013	1686.28	45.79016
65.53408	1688.891	42.51616
65.58803	1684.07	46.39093
65.64198	1688.651	43.97527
65.69593	1683.623	44.15838
65.74988	1688.352	42.23675
65.80383	1684.146	46.67847
65.85778	1688.927	45.03907
65.91173	1682.856	46.84622
65.96568	1686.225	48.59846
66.01963	1685.486	48.81366
66.07358	1689.042	44.8923
66.12753	1682.736	43.68626
66.18148	1689.061	43.3193
66.23543	1682.809	47.6797
66.28938	1687.813	45.96863
66.34333	1684.477	50.65279
66.39728	1691.115	49.40773
66.45123	1687.608	45.31769
66.50518	1693.302	44.15077
66.55913	1690.718	44.91551
66.61308	1693.836	44.4636
66.66703	1690.254	46.73811
66.72098	1699.639	42.82533
66.77493	1694.322	47.43794
66.82887	1698.209	45.54556
66.88283	1698.464	51.58918
66.93678	1703.306	48.09962
66.99072	1703.078	47.40114
67.04468	1707.734	47.71552
67.09863	1704.599	44.51441
67.15257	1707.588	47.20163
67.20653	1708.847	49.82164
67.26048	1715.404	48.57225
67.31442	1713.095	47.83748
67.36838	1719.68	48.31131
67.42233	1720.76	49.16233
67.47627	1723.379	52.23072
67.53023	1728.598	51.36973
67.58418	1734.394	50.07362
67.63812	1735.833	50.07536
67.69207	1737.116	51.02932
67.74603	1740.714	52.25539
67.79997	1741.933	51.10463
67.85392	1747.313	52.46245
67.90788	1749.378	50.99987
67.96182	1757.537	49.90414
68.01577	1758.399	50.53169
68.06973	1767.168	48.40899
68.12367	1770.757	53.69106
68.17762	1779.112	50.2154
68.23158	1778.083	52.24287
68.28552	1790.58	51.29385
68.33947	1793.003	55.8249
68.39342	1803.175	57.6176
68.44737	1803.899	55.57023
68.50132	1813.475	58.86549
68.55527	1815.948	54.77485
68.60922	1827.291	56.184
68.66317	1826.016	58.4337
68.71712	1840.386	56.37547
68.77107	1842.257	58.88992
68.82502	1854.048	54.66875
68.87897	1855.349	58.76616
68.93292	1868.452	61.28284
68.98687	1870.933	62.8834
69.04082	1884.921	61.12862
69.09477	1885.302	63.16793
69.14872	1902.15	57.93011
69.20267	1905.627	63.75657
69.25661	1921.204	62.69187
69.31057	1927.014	67.93498
69.36452	1942.411	65.3131
69.41846	1946.893	66.04028
69.47242	1964.798	64.07566
69.52637	1970.373	64.16425
69.58031	1985.066	66.06756
69.63427	1994.265	67.13658
69.68822	2009.687	66.2001
69.74216	2021.602	65.96719
69.79612	2035.599	64.14165
69.85007	2046.662	64.30676
69.90401	2057.061	68.27359
69.95796	2072.66	70.6549
70.01192	2086.112	72.15739
70.06586	2103.837	71.31932
70.11981	2116.944	71.32932
70.17377	2134.539	71.37952
70.22771	2144.064	75.6517
70.28166	2165.856	76.56981
70.33562	2177.615	77.11744
70.38956	2196.94	77.67226
70.44351	2210.374	83.9111
70.49747	2230.524	85.30591
70.55141	2241.532	82.47306
70.60536	2267.526	84.58038
70.65932	2276.879	77.60553
70.71326	2299.103	73.42291
70.76721	2315.926	82.35899
70.82116	2339.807	87.13583
70.87511	2348.507	88.10026
70.92906	2372.203	88.10292
70.98301	2389.754	87.44212
71.03696	2417.36	86.3189
71.09091	2432.057	93.56774
71.14486	2458.498	90.31313
71.19881	2473.811	89.27629
71.25276	2501.859	89.54143
71.30671	2512.026	92.7543
71.36066	2546.06	86.38674
71.41461	2555.534	92.48898
71.46856	2588.099	89.5817
71.52251	2605.603	93.76152
71.57646	2641.779	89.78288
71.63041	2651.226	94.72349
71.68436	2681.88	92.68359
71.73831	2693.218	97.44913
71.79226	2724.502	95.28949
71.84621	2751.603	100.4742
71.90016	2782.475	98.08221
71.95411	2798.731	105.5767
72.00806	2833.779	100.1162
72.06201	2851.838	103.1928
72.11596	2886.875	99.22615
72.16991	2910.871	99.90904
72.22386	2947.64	101.304
72.27781	2966.472	101.5598
72.33176	2996.094	101.2372
72.3857	3023.255	105.4714
72.43966	3051.051	106.2114
72.49361	3074.022	102.1205
72.54755	3103.587	100.8108
72.60151	3127.87	103.6969
72.65546	3149.43	102.1963
72.7094	3169.941	102.2334
72.76336	3194.469	101.7596
72.81731	3216.416	102.5532
72.87125	3232.776	107.0707
72.92521	3257.123	102.8062
72.97916	3273.635	100.1785
73.0331	3300.886	101.4483
73.08706	3307.856	96.38272
73.14101	3330.619	93.63052
73.19495	3336.33	94.72536
73.2489	3365.8	96.75825
73.30286	3373.516	101.1187
73.3568	3398.103	97.05712
73.41075	3397.677	93.38656
73.46471	3423.065	87.05244
73.51865	3417.335	99.38564
73.5726	3444.496	93.42532
73.62656	3441.829	104.1977
73.6805	3461.391	101.7517
73.73445	3460.151	97.92529
73.78841	3486.62	95.87044
73.84235	3479.533	91.56229
73.8963	3501.237	87.67608
73.95025	3494.504	92.33145
74.0042	3515.484	90.0715
74.05815	3511.468	92.94694
74.1121	3530.735	92.19655
74.16605	3524.877	86.61062
74.22	3544.94	88.80031
74.27395	3535.901	90.75396
74.3279	3554.931	91.06152
74.38185	3544.71	92.97422
74.4358	3566.581	88.96942
74.48975	3553.976	96.07278
74.5437	3573.044	88.99641
74.59765	3570.31	95.77942
74.6516	3587.893	94.36449
74.70555	3577.391	94.01065
74.7595	3592.413	89.79951
74.81345	3581.21	93.42698
74.8674	3595.181	86.51376
74.92135	3585.982	85.72665
74.9753	3599.859	85.60836
75.02925	3598.422	95.33229
75.0832	3607.993	94.09865
75.13715	3607.964	90.10186
75.1911	3616.446	88.11231
75.24505	3624.811	88.48428
75.299	3620.838	96.05287
75.35295	3629.525	97.912
75.4069	3622.893	93.45329
75.46085	3640.789	92.82579
75.51479	3630.63	90.37753
75.56875	3647.59	88.89311
75.6227	3638.176	92.04185
75.67664	3657.901	80.43449
75.7306	3640.723	90.94038
75.78455	3663.35	86.53331
75.83849	3640.479	90.42371
75.89245	3658.024	84.99355
75.9464	3653.673	86.83907
76.00034	3668.329	82.58153
76.0543	3652.901	86.95757
76.10825	3673.327	82.76179
76.16219	3656.065	92.53934
76.21615	3673.798	85.35324
76.2701	3657.728	96.05889
76.32404	3680.466	86.24778
76.37799	3660.706	88.38436
76.43195	3678.146	82.27246
76.48589	3667.268	84.13585
76.53984	3688.419	77.54028
76.5938	3676.932	84.27126
76.64774	3684.736	88.6245
76.70169	3684.99	85.44384
76.75565	3694.554	83.0034
76.80959	3690.527	82.56773
76.86354	3688.069	84.56372
76.9175	3690.056	84.83398
76.97144	3695.474	81.64281
77.02539	3702.761	84.28968
77.07935	3696.112	87.77867
77.13329	3708.359	80.32581
77.18724	3700.405	89.15528
77.24119	3713.041	89.93628
77.29514	3697.08	85.6809
77.34909	3712.138	75.175
77.40304	3697.738	88.45713
77.45699	3715.874	82.62366
77.51094	3699.84	88.50995
77.56489	3721.151	85.52375
77.61884	3704.077	85.0514
77.67279	3722.276	80.90461
77.72674	3694.778	87.40948
77.78069	3712.977	78.22464
77.83464	3703.364	92.05157
77.88859	3717.518	86.47695
77.94254	3703.95	90.86379
77.99649	3717.817	87.12787
78.05044	3700.655	92.83072
78.10439	3723.034	84.26499
78.15834	3706.898	95.00523
78.21229	3719.864	83.80687
78.26624	3707.029	92.78249
78.32019	3719.936	85.73443
78.37414	3698.244	86.86418
78.42809	3718.585	84.65703
78.48204	3707.794	89.37389
78.53599	3723.186	84.08407
78.58994	3708.711	92.77212
78.64389	3727.008	90.08275
78.69784	3708.138	88.3184
78.75179	3724.649	87.0716
78.80573	3713.62	85.8431
78.85969	3729.688	83.71182
78.91364	3716.725	88.91557
78.96758	3730.393	89.22101
79.02154	3722.381	89.71456
79.07549	3726.578	85.38611
79.12943	3731.542	84.12665
79.18339	3727.04	86.22001
79.23734	3730.778	84.95396
79.29128	3726.671	84.86227
79.34524	3732.179	84.03796
79.39919	3723.32	92.69031
79.45313	3732.677	87.58192
79.50708	3724.682	84.25137
79.56104	3746.996	74.36987
79.61498	3720.403	90.5713
79.66893	3744.544	85.55464
79.72289	3724.293	92.94485
79.77683	3743.672	90.43304
79.83078	3722.135	89.25007
79.88474	3742.042	75.7128
79.93868	3724.665	83.97572
79.99263	3737.077	79.37119
80.04659	3719.912	81.33981
80.10053	3742.548	84.19585
80.15448	3726.871	89.92464
80.20844	3741.65	89.03529
80.26238	3720.498	90.14196
80.31633	3735.754	86.06658
80.37028	3723.976	90.31248
80.42423	3743.88	83.88666
80.47818	3720.357	83.77794
80.53213	3742.169	76.72193
80.58608	3721.757	82.89371
80.64003	3738.825	83.78236
80.69398	3720.681	89.43447
80.74793	3741.155	85.0518
80.80188	3722.487	79.14614
80.85583	3744.948	75.38577
80.90978	3724.02	80.1016
80.96373	3740.553	80.99213
81.01768	3723.824	82.14406
81.07162	3740.492	80.25572
81.12558	3725.933	82.34807
81.17953	3738.889	82.30367
81.23347	3732.064	89.20415
81.28743	3738.787	87.80286
81.34138	3732.148	80.07648
81.39532	3741.804	79.83934
81.44928	3740.874	81.51248
81.50323	3741.81	83.03817
81.55717	3736.583	84.71513
81.61113	3740.955	81.95732
81.66508	3742.866	79.0284
81.71902	3742.774	77.16246
81.77298	3747.918	76.67081
81.82693	3744.755	79.43581
81.88087	3745.564	82.04795
81.93482	3737.189	83.91469
81.98878	3748.908	83.29047
82.04272	3743.6	79.38591
82.09667	3754.668	80.71925
82.15063	3744.695	83.67803
82.20457	3761.443	82.71624
82.25852	3745.051	81.17818
82.31248	3758.135	85.6269
82.36642	3748.288	80.92144
82.42037	3764.918	75.80972
82.47433	3745.86	79.97672
82.52827	3765.231	75.23338
82.58222	3747.917	78.69868
82.63618	3763.631	74.54049
82.69012	3748.055	85.49422
82.74407	3769.724	74.975
82.79802	3754.089	87.98232
82.85197	3768.419	79.26946
82.90592	3751.451	88.62463
82.95987	3772.931	74.8052
83.01382	3755.242	77.20924
83.06777	3769.791	72.30474
83.12172	3753.168	77.77521
83.17567	3766.639	70.86967
83.22962	3748.593	79.71887
83.28357	3769.165	73.47591
83.33752	3751.967	80.45194
83.39147	3769.087	76.33454
83.44542	3745.688	84.28127
83.49937	3768.451	81.91647
83.55332	3749.708	78.57945
83.60727	3770.102	74.36742
83.66122	3757.834	78.8207
83.71517	3778.09	72.91065
83.76912	3754.738	85.38213
83.82307	3781.753	79.16387
83.87702	3761.086	84.11552
83.93097	3777.682	74.95808
83.98492	3758.794	79.86006
84.03887	3774.707	76.1133
84.09282	3747.731	83.9136
84.14677	3770.087	76.24554
84.20072	3755.228	84.10925
84.25467	3774.922	74.58077
84.30862	3759.888	80.09325
84.36256	3771.365	81.19739
84.41652	3756.821	85.4006
84.47047	3770.486	80.02877
84.52441	3759.969	76.89753
84.57837	3767.939	75.3384
84.63232	3753.783	76.42924
84.68626	3761.797	71.10759
84.74022	3757.462	72.90704
84.79417	3762.875	78.63097
84.84811	3760.34	79.654
84.90207	3762.585	77.48122
84.95602	3757.028	72.40868
85.00996	3760.835	73.25327
85.06391	3765.168	76.58659
85.11787	3757.67	76.39779
85.17181	3760.528	78.69813
85.22576	3755.459	80.15903
85.27972	3759.83	78.8057
85.33366	3749.929	77.17802
85.38761	3762.377	77.0551
85.44157	3747.119	78.56351
85.49551	3755.493	75.70541
85.54946	3748.838	76.89855
85.60342	3757.608	75.99413
85.65736	3742.196	75.53441
85.71131	3758.156	76.11685
85.76527	3734.073	72.28508
85.81921	3753.928	66.95129
85.87316	3728.501	76.27921
85.92711	3749.359	79.46328
85.98106	3725.844	72.19645
86.03501	3746.033	64.01701
86.08896	3721.949	72.80027
86.14291	3745.906	61.78403
86.19686	3715.181	69.78578
86.25081	3736.155	57.3418
86.30476	3716.416	71.62731
86.35871	3729.284	67.50619
86.41266	3711.633	74.96351
86.46661	3726.122	69.07185
86.52056	3697.883	73.11771
86.57451	3718.804	72.76446
86.62846	3693.705	69.50817
86.68241	3714.897	66.13087
86.73636	3692.541	69.33127
86.79031	3712.716	61.76959
86.84426	3684.591	68.08109
86.89821	3702.328	64.40321
86.95216	3684.335	71.40122
87.00611	3699.791	64.15424
87.06006	3670.277	69.92556
87.11401	3690.289	65.08585
87.16796	3668.591	66.78381
87.22191	3683.56	59.90902
87.27586	3658.158	69.35854
87.32981	3679.265	60.89119
87.38376	3650.531	67.52425
87.43771	3672.808	60.88505
87.49165	3643.389	65.50339
87.54561	3660.431	58.70214
87.59956	3641.98	68.43089
87.6535	3656.802	60.68403
87.70746	3637.684	71.20208
87.76141	3653.517	62.86191
87.81535	3632.887	62.58827
87.86931	3642.588	63.08428
87.92326	3621.229	64.9624
87.9772	3632.127	59.48225
88.03116	3618.686	63.87807
88.08511	3630.055	60.01081
88.13905	3620.842	63.31096
88.19301	3625.934	60.9263
88.24696	3612.073	63.15629
88.3009	3615.065	62.97348
88.35485	3607.046	63.79316
88.40881	3611.92	61.28489
88.46275	3608.841	57.81995
88.5167	3600.253	59.11572
88.57066	3600.824	56.56538
88.6246	3596.582	51.71312
88.67855	3598.567	53.15747
88.73251	3583.278	52.6404
88.78645	3582.456	54.91157
88.8404	3581.005	60.65972
88.89436	3592.073	58.18633
88.9483	3579.845	59.51448
89.00225	3593.894	58.17966
89.0562	3566.524	62.51528
89.11015	3585.885	57.36328
89.1641	3560.459	58.72852
89.21805	3573.623	61.06834
89.272	3549.969	58.75653
89.32595	3567.632	54.80394
89.3799	3541.366	55.36362
89.43385	3559.892	55.7334
89.4878	3533.533	63.23882
89.54175	3547.428	56.82969
89.5957	3527.62	59.946
89.64965	3546.153	52.53186
89.7036	3521.669	58.94987
89.75755	3539.067	48.14973
89.8115	3515.889	56.82461
89.86545	3532.35	46.33822
89.9194	3504.822	55.00654
89.97335	3521.276	45.4297
90.0273	3494.575	68.07603
90.08125	3505.285	58.97495
90.1352	3487.531	57.05104
90.18915	3507.432	49.78919
90.2431	3480.271	56.60665
90.29705	3495.15	52.36541
90.351	3473.694	58.70708
90.40495	3489.21	50.02679
90.4589	3465.634	56.03124
90.51285	3485.929	47.61766
90.5668	3453.707	46.64285
90.62074	3466.265	46.50281
90.6747	3448.501	54.94106
90.72865	3465.674	45.44857
90.78259	3440.176	44.81797
90.83655	3459.526	42.56161
90.8905	3436.398	47.75333
90.94444	3449.403	45.95199
90.9984	3419.628	54.8055
91.05235	3438.096	52.1792
91.10629	3417.13	47.96836
91.16025	3432.813	43.17616
91.2142	3403.669	50.27619
91.26814	3423.276	42.18315
91.3221	3402.17	43.56086
91.37605	3416.127	42.58577
91.42999	3396.253	48.80142
91.48394	3409.799	44.47282
91.5379	3387.937	45.52969
91.59184	3399.832	44.14951
91.64579	3384.216	45.51818
91.69975	3392.299	38.69505
91.75369	3379.869	39.43253
91.80764	3378.076	40.9786
91.8616	3371.911	45.61231
91.91554	3370.297	47.0405
91.96949	3369.526	46.37909
92.02345	3365.727	46.80718
92.07739	3360.613	43.5854
92.13134	3355.451	41.50504
92.1853	3359.501	39.69532
92.23924	3347.232	39.38917
92.29319	3349.671	41.80442
92.34714	3339.307	41.88828
92.40109	3345.752	38.79871
92.45504	3330.927	38.09652
92.50899	3344.141	41.38213
92.56294	3326.386	40.67959
92.61689	3338.018	40.08202
92.67084	3313.001	40.46449
92.72479	3328.456	33.93393
92.77874	3309.24	43.81493
92.83269	3320.257	40.29533
92.88664	3300.735	36.9545
92.94059	3316.226	39.94361
92.99454	3287.287	39.79852
93.04848	3305.463	30.64191
93.10244	3277.027	36.65346
93.15639	3299.092	30.29561
93.21033	3269.249	36.12848
93.26429	3288.26	29.78109
93.31824	3263.502	41.5786
93.37218	3279.662	33.74422
93.42614	3248.248	43.19595
93.48009	3262.578	33.90899
93.53403	3244.245	42.46584
93.58799	3258.786	33.56499
93.64194	3234.839	35.24691
93.69588	3250.715	32.14331
93.74984	3225.861	37.5147
93.80379	3239.889	32.79284
93.85773	3219.378	36.05469
93.91168	3235.402	30.00646
93.96564	3211.617	39.94731
94.01958	3229.49	34.18607
94.07353	3203.764	39.58012
94.12749	3219.585	32.54047
94.18143	3194.412	41.51982
94.23538	3210.258	31.62169
94.28934	3191.251	41.9724
94.34328	3198.763	35.52072
94.39723	3186.833	36.03878
94.45119	3176.108	35.03738
94.50513	3191.586	27.85632
94.55908	3170.453	36.49783
94.61303	3165.451	36.29289
94.66698	3181.323	37.17488
94.72093	3164.979	33.75652
94.77488	3156.837	34.9587
94.82883	3146.632	30.48165
94.88278	3143.23	26.78374
94.93673	3163.095	27.33623
94.99068	3158.051	25.63051
