T[Â°C]	350nm [counts / mm]	S.D.
20.00043	2863.339	75.59702
20.05438	2859.732	77.16964
20.10833	2859.372	70.80711
20.16228	2861.227	74.37827
20.21623	2855.223	72.61822
20.27018	2856.14	74.24464
20.32413	2851.918	76.59414
20.37808	2847.896	72.15951
20.43203	2846.365	73.48489
20.48598	2846.242	70.24035
20.53993	2845.422	69.04633
20.59388	2839.938	72.01681
20.64783	2838.505	75.13958
20.70178	2838.333	72.63484
20.75573	2832.7	70.25735
20.80968	2830.399	70.71179
20.86363	2829.706	72.64314
20.91758	2827.763	68.73738
20.97153	2827.061	61.48239
21.02548	2823.632	70.00922
21.07943	2822.812	72.67539
21.13338	2823.262	73.78004
21.18733	2819.501	70.3457
21.24128	2817.242	72.06202
21.29523	2809.571	72.89407
21.34918	2809.13	71.08459
21.40313	2808.29	68.74666
21.45708	2804.938	70.99129
21.51103	2802.419	69.33194
21.56498	2800.476	70.20953
21.61893	2798.171	67.58683
21.67288	2794.093	69.76679
21.72683	2792.022	74.04086
21.78078	2788.885	70.90746
21.83473	2788.175	73.45584
21.88868	2787.951	74.31615
21.94263	2788.342	70.89531
21.99658	2781.316	70.72414
22.05053	2784.375	76.64352
22.10448	2780.557	70.69334
22.15843	2778.567	68.44982
22.21238	2774.777	71.94264
22.26632	2774.684	69.17942
22.32027	2771.137	67.6792
22.37423	2771.136	74.09222
22.42817	2765.988	71.13078
22.48212	2765.994	70.2173
22.53607	2763.37	72.79389
22.59002	2760.961	73.64906
22.64397	2757.795	75.08035
22.69792	2755.1	73.37305
22.75187	2756.144	72.0406
22.80582	2751.549	66.48216
22.85977	2749.234	66.96629
22.91372	2750.654	71.87962
22.96767	2745.371	72.77646
23.02162	2741.381	73.38681
23.07557	2736.315	72.1897
23.12952	2735.331	73.34137
23.18347	2735.432	71.92019
23.23742	2732.636	69.42148
23.29137	2730.382	71.92311
23.34532	2729.24	72.76057
23.39927	2726.019	69.09399
23.45322	2720.823	66.61536
23.50717	2718.844	65.80789
23.56112	2719.504	68.73355
23.61507	2717.993	70.49655
23.66902	2714.74	66.96127
23.72297	2716.643	70.72285
23.77692	2718.906	72.55946
23.83087	2712.512	72.23036
23.88482	2713.151	74.12107
23.93877	2707.519	67.11003
23.99272	2707.514	68.57626
24.04667	2706.784	67.21745
24.10062	2703.883	66.76668
24.15457	2698.345	68.49903
24.20852	2699.661	69.26537
24.26247	2693.225	66.30699
24.31642	2691.43	61.81477
24.37037	2688.726	63.72434
24.42432	2684.915	61.57788
24.47827	2684.519	68.00202
24.53222	2683.252	67.87802
24.58617	2682.68	68.03475
24.64012	2679.607	69.23743
24.69407	2675.693	70.95363
24.74802	2675.497	70.50168
24.80197	2670.973	66.79249
24.85592	2669.76	69.76753
24.90987	2667.387	70.3203
24.96382	2665.315	71.12074
25.01777	2663.151	67.77833
25.07172	2662.523	65.98285
25.12567	2657.704	63.24511
25.17962	2657.992	66.41425
25.23357	2660.313	65.9692
25.28752	2655.717	64.06809
25.34146	2648.045	67.4766
25.39541	2647.378	65.41074
25.44937	2645.223	67.62755
25.50331	2642.804	66.71092
25.55726	2639.227	65.88041
25.61121	2639.176	67.20309
25.66516	2640.35	69.91835
25.71911	2636.472	69.30444
25.77306	2636.17	66.52737
25.82701	2632.868	65.35175
25.88096	2627.586	67.46412
25.93491	2623.623	66.13369
25.98886	2626.902	67.06111
26.04281	2621.797	65.08358
26.09676	2622.1	68.5029
26.15071	2619.805	66.90797
26.20466	2619.179	66.57716
26.25861	2618.061	68.24182
26.31256	2608.919	68.55688
26.36651	2608.959	67.87727
26.42046	2609.483	64.21632
26.47441	2609.649	64.25375
26.52836	2602.074	67.77414
26.58231	2600.715	66.81265
26.63626	2599.436	67.11086
26.69021	2596.411	68.01624
26.74416	2595.13	67.93647
26.79811	2594.081	65.79807
26.85206	2592.992	65.32883
26.90601	2590.429	64.48306
26.95996	2587.104	66.54487
27.01391	2585.031	69.02563
27.06786	2582.349	66.16581
27.12181	2579.795	65.12862
27.17576	2577.649	66.05305
27.22971	2575.503	62.36536
27.28366	2577.354	60.92547
27.33761	2574.948	62.37055
27.39156	2571.49	63.74861
27.44551	2569.734	65.62537
27.49946	2564.405	64.12382
27.55341	2561.054	65.90717
27.60736	2560.714	62.92642
27.66131	2561.015	64.29871
27.71526	2558.029	65.15899
27.76921	2555.74	66.14815
27.82316	2554.353	68.703
27.87711	2551.389	62.40576
27.93106	2548.616	59.0776
27.98501	2541.888	64.72852
28.03896	2544.325	60.17673
28.09291	2542.11	65.05703
28.14686	2538.281	62.22958
28.20081	2536.489	61.56141
28.25476	2533.949	61.26591
28.3087	2534.575	58.49393
28.36266	2531.984	61.67943
28.4166	2529.836	62.53855
28.47055	2529.5	64.54782
28.5245	2526.516	61.53746
28.57845	2522.573	62.05598
28.6324	2520.274	61.96632
28.68635	2521.927	66.71597
28.7403	2517.743	64.78783
28.79425	2516.571	61.61871
28.8482	2514.354	63.99898
28.90215	2514.244	64.47256
28.9561	2506.831	63.49166
29.01005	2506.635	62.98705
29.064	2504.743	60.83704
29.11795	2503.771	60.78961
29.1719	2505.402	62.67972
29.22585	2498.608	63.00449
29.2798	2497.507	62.39019
29.33375	2496.06	60.25035
29.3877	2488.465	58.65947
29.44165	2486.994	62.98791
29.4956	2486.515	58.54035
29.54955	2483.264	58.95364
29.6035	2489.894	59.5463
29.65745	2481.795	65.32468
29.7114	2480.183	65.87775
29.76535	2479.736	65.12323
29.8193	2476.962	63.81394
29.87325	2475.68	68.7681
29.9272	2476.049	64.49388
29.98115	2472.818	62.50342
30.0351	2467.386	65.01754
30.08905	2469.25	64.08165
30.143	2466.266	59.8993
30.19695	2461.784	59.04701
30.2509	2462.158	64.769
30.30485	2457.817	62.91079
30.3588	2451.447	65.85124
30.41275	2454.175	65.42912
30.4667	2456.903	65.6736
30.52065	2452.067	66.70822
30.5746	2448.274	62.18881
30.62855	2446.002	59.20588
30.6825	2441.648	58.54686
30.73645	2440.501	61.08884
30.7904	2441.567	63.54724
30.84435	2441.844	63.13172
30.8983	2439.797	63.01697
30.95225	2434.764	62.33158
31.0062	2433.768	64.16747
31.06015	2431.421	66.36996
31.1141	2428.63	64.68842
31.16805	2426.661	59.85234
31.222	2424.358	60.47804
31.27595	2421.875	61.01597
31.3299	2422.38	59.09829
31.38384	2417.682	52.85213
31.4378	2416.655	55.89926
31.49174	2409.331	58.81584
31.54569	2407.687	61.63671
31.59964	2408.641	59.78902
31.65359	2408.026	57.08512
31.70754	2404.329	55.02967
31.76149	2406.518	59.34431
31.81544	2402.341	58.51576
31.86939	2401.762	67.1855
31.92334	2397.763	60.1325
31.97729	2398.691	59.30281
32.03124	2393.177	61.49764
32.08519	2391.585	63.19355
32.13914	2390.272	60.59233
32.19309	2390.816	66.37841
32.24704	2386.251	58.02618
32.30099	2385.406	58.01483
32.35494	2380.225	53.43687
32.40889	2380.72	57.11665
32.46284	2375.823	60.47768
32.51679	2376.2	57.87125
32.57074	2377.188	55.67791
32.62469	2373.355	54.54699
32.67864	2367.453	60.82935
32.73259	2365.415	57.30623
32.78654	2364.946	60.15535
32.84049	2363.247	58.46218
32.89444	2361.606	58.53056
32.94839	2364.711	55.64856
33.00234	2354.105	60.97959
33.05629	2356.415	60.99366
33.11024	2352.59	57.5729
33.16419	2353.508	59.71064
33.21814	2354.551	55.69816
33.27209	2348.823	54.96357
33.32604	2346.909	56.35263
33.37999	2344.857	57.63458
33.43394	2341.521	55.12012
33.48789	2339.455	56.53435
33.54184	2334.25	64.61951
33.59579	2333.639	60.5033
33.64974	2334.519	60.37498
33.70369	2332.558	58.93441
33.75764	2328.81	59.97382
33.81159	2328.151	60.38628
33.86554	2325.708	63.17686
33.91949	2323.792	61.40435
33.97343	2318.169	64.65604
34.02739	2316.404	62.81847
34.08134	2317.632	62.99007
34.13528	2313.128	62.51262
34.18924	2309.336	54.95346
34.24319	2309.606	57.20502
34.29713	2310.474	56.30557
34.35109	2306.812	57.22596
34.40503	2303.606	60.69081
34.45898	2302.474	59.05592
34.51294	2301.345	55.85335
34.56688	2301.573	56.52308
34.62083	2296.86	57.62418
34.67479	2292.79	57.24287
34.72873	2293.144	58.66759
34.78268	2294.068	57.73691
34.83663	2293.894	56.60155
34.89058	2288.157	58.64328
34.94453	2285.771	56.55547
34.99848	2282.64	53.32927
35.05243	2281.838	52.83795
35.10638	2280.229	57.86685
35.16033	2278.219	58.81387
35.21428	2277.75	56.30742
35.26823	2276.284	55.82731
35.32218	2272.025	54.11304
35.37613	2272.176	52.79185
35.43008	2271.623	53.9158
35.48403	2271.012	57.3819
35.53798	2261.717	55.68167
35.59193	2260.848	57.22203
35.64588	2262.527	57.0703
35.69983	2259.333	57.01217
35.75378	2258.181	55.45008
35.80773	2258.381	57.36388
35.86168	2251.707	54.31772
35.91563	2253.564	52.86411
35.96958	2250.663	58.74598
36.02353	2250.87	59.36776
36.07748	2246.734	59.91965
36.13143	2244.157	58.83119
36.18538	2241.133	55.25948
36.23933	2239.637	53.93399
36.29328	2234.781	58.0463
36.34723	2233.993	55.51013
36.40118	2227.783	57.32952
36.45513	2229.605	56.17707
36.50908	2226.414	56.1909
36.56303	2227.058	56.86081
36.61698	2225.46	54.32578
36.67093	2221.904	51.56396
36.72488	2217.68	53.56912
36.77883	2220.001	54.26398
36.83278	2217.814	51.84378
36.88673	2219.467	55.20586
36.94068	2214.612	54.80764
36.99463	2213.992	56.44366
37.04858	2211.05	58.30838
37.10253	2209.651	58.10153
37.15648	2205.929	55.00891
37.21043	2203.124	52.4986
37.26437	2201.147	58.49942
37.31833	2201.395	53.46825
37.37228	2196.954	54.82856
37.42622	2194.937	54.74266
37.48018	2194.738	55.27985
37.53412	2191.939	53.33149
37.58807	2187.064	53.21954
37.64202	2186.955	56.12372
37.69597	2184.678	56.70788
37.74992	2186.11	52.36271
37.80387	2182.303	52.43781
37.85782	2182.11	55.20032
37.91177	2178.537	56.32845
37.96572	2176.926	58.113
38.01967	2174.534	59.79952
38.07362	2175.47	59.07672
38.12757	2170.529	58.6522
38.18152	2170.919	55.87411
38.23547	2167.452	52.81336
38.28942	2164.979	53.00853
38.34337	2163.306	54.05502
38.39732	2162.539	52.8268
38.45127	2160.444	51.92628
38.50522	2156.739	52.95517
38.55917	2157.081	52.11574
38.61312	2153.486	52.76217
38.66707	2150.878	53.17479
38.72102	2149.981	51.36339
38.77497	2150.625	52.51126
38.82892	2147.838	53.91313
38.88287	2144.857	54.86937
38.93682	2145.261	54.03559
38.99077	2142.958	54.71241
39.04472	2139.144	54.32851
39.09867	2135.205	51.19211
39.15262	2133.039	54.16346
39.20657	2136.939	50.34691
39.26052	2130.724	50.99038
39.31447	2133.415	50.6561
39.36842	2127.695	48.90095
39.42237	2130.438	46.27442
39.47632	2121.675	56.20395
39.53027	2121.967	52.09576
39.58422	2119.869	51.29631
39.63817	2118.098	50.92645
39.69212	2113.66	50.24011
39.74607	2111.74	52.54786
39.80002	2110.284	49.82867
39.85397	2113.141	49.59412
39.90792	2106.571	51.17076
39.96186	2104.883	51.35453
40.01582	2101.676	51.90173
40.06977	2105.47	51.31193
40.12371	2100.859	52.68856
40.17767	2100.764	51.19878
40.23162	2097.083	54.54171
40.28556	2099.373	54.75162
40.33952	2093.113	53.86656
40.39346	2095.014	54.70849
40.44741	2091.433	52.05283
40.50137	2092.734	53.67096
40.55531	2085.778	55.10506
40.60926	2086.51	50.8512
40.66322	2083.575	49.78331
40.71716	2082.783	51.897
40.77111	2077.792	49.91392
40.82506	2077.466	51.0196
40.87901	2072.011	54.20672
40.93296	2070.906	53.22658
40.98691	2065.693	52.59961
41.04086	2066.742	50.16866
41.09481	2065.213	49.94055
41.14876	2065.664	47.77067
41.20271	2062.705	50.18934
41.25666	2061.356	50.9222
41.31061	2056.138	53.94763
41.36456	2058.168	52.28566
41.41851	2055.352	48.2827
41.47246	2054.187	49.00423
41.52641	2051.2	50.7059
41.58036	2049.613	51.39441
41.63431	2047.024	49.62005
41.68826	2046.458	46.49015
41.74221	2045.744	46.32667
41.79616	2044.635	47.52582
41.85011	2042.503	46.93039
41.90406	2040.198	47.09295
41.95801	2039.241	49.53354
42.01196	2035.501	49.40494
42.06591	2034.329	48.62435
42.11986	2031.386	50.94381
42.17381	2031.66	52.05777
42.22776	2029.948	51.93864
42.28171	2031.283	55.08171
42.33566	2026.415	50.44923
42.38961	2023.186	50.72839
42.44356	2020.835	50.08985
42.49751	2021.601	48.75704
42.55146	2018.132	53.60483
42.60541	2019.835	54.3875
42.65936	2013.963	45.6769
42.71331	2013.183	48.10438
42.76726	2009.003	52.46491
42.82121	2009.315	50.9249
42.87516	2003.918	48.80951
42.92911	2008.886	45.54971
42.98306	2002.736	50.45647
43.03701	2004.611	46.8657
43.09095	1997.571	48.47046
43.14491	1996.807	48.50135
43.19886	1995.063	51.3722
43.2528	1994.832	50.33447
43.30676	1992.905	51.79442
43.36071	1994.468	50.74749
43.41465	1988.512	49.3447
43.46861	1988.931	51.29821
43.52255	1982.821	47.5807
43.5765	1980.814	47.44013
43.63046	1979.302	50.67266
43.6844	1978.678	48.75735
43.73835	1976.627	48.65651
43.7923	1979.447	50.93345
43.84625	1972.403	48.48445
43.9002	1975.423	46.27546
43.95415	1969.903	43.9358
44.0081	1971.655	45.03191
44.06205	1963.009	49.13329
44.116	1965.722	46.01345
44.16995	1961.944	51.57796
44.2239	1961.394	52.34533
44.27785	1955.914	49.64867
44.3318	1956.327	48.72795
44.38575	1958.048	53.80014
44.4397	1956.16	52.35996
44.49365	1952.043	57.33708
44.5476	1952.453	50.98299
44.60155	1946.831	47.51614
44.6555	1947.225	46.78907
44.70945	1945.399	44.51839
44.7634	1946.941	47.03003
44.81735	1936.245	49.19917
44.8713	1938.739	50.24178
44.92525	1933.78	47.20103
44.9792	1937.163	47.8181
45.03315	1933.47	44.57912
45.0871	1931.761	46.64102
45.14105	1930.172	48.85756
45.195	1930.022	48.02093
45.24895	1926.387	46.08613
45.3029	1927.711	46.54311
45.35685	1926.137	46.7486
45.4108	1923.569	43.91895
45.46475	1921.451	44.59819
45.5187	1918.427	49.21244
45.57265	1916.067	51.35123
45.6266	1915.509	52.36095
45.68055	1917.371	48.93972
45.7345	1913.95	46.46273
45.78845	1913.3	47.98974
45.8424	1908.804	47.39577
45.89635	1908.778	48.76237
45.95029	1905.067	45.34711
46.00425	1907.046	45.43946
46.0582	1903.206	46.95797
46.11214	1902.499	44.63107
46.1661	1897.121	43.49099
46.22005	1897.964	41.60409
46.27399	1894.644	43.14186
46.32795	1898.602	41.43838
46.38189	1892.646	44.8406
46.43584	1891.128	45.5625
46.4898	1888.579	47.38771
46.54374	1888.362	44.7744
46.59769	1884.414	43.1427
46.65165	1885.939	46.38511
46.70559	1879.471	45.72878
46.75954	1879.994	47.76125
46.81349	1877.961	44.11288
46.86744	1878.047	44.05478
46.92139	1869.992	44.78681
46.97534	1871.494	46.04833
47.02929	1867.076	45.52939
47.08324	1867.791	44.58182
47.13719	1864.175	47.53176
47.19114	1865.35	45.50414
47.24509	1863.195	47.57418
47.29904	1864.371	49.87758
47.35299	1857.634	45.30825
47.40694	1859.52	46.03377
47.46089	1854.535	46.26696
47.51484	1855.52	47.53923
47.56879	1852.019	48.29718
47.62274	1851.878	42.43507
47.67669	1851.546	50.91178
47.73064	1848.583	42.43578
47.78459	1844.393	49.17376
47.83854	1842.886	48.77407
47.89249	1838.871	46.02512
47.94644	1838.979	47.01389
48.00039	1834.077	48.91295
48.05434	1835.954	45.11824
48.10829	1834.16	43.75023
48.16224	1833.322	44.59761
48.21619	1827.774	43.26126
48.27014	1829.1	44.56626
48.32409	1823.288	42.45307
48.37804	1825.161	45.99121
48.43199	1819.746	43.91984
48.48594	1822.238	46.46451
48.53989	1818.663	43.14017
48.59384	1818.694	41.88689
48.64779	1816.914	45.71906
48.70174	1814.184	45.71799
48.75569	1810.551	43.93829
48.80964	1813.165	42.27668
48.86359	1810.618	42.5609
48.91754	1807.554	42.61521
48.97149	1805.663	40.77201
49.02544	1802.152	40.36352
49.07938	1804.031	41.36992
49.13334	1800.378	43.14261
49.18729	1800.192	44.78584
49.24123	1799.78	45.52412
49.29519	1799.924	42.88782
49.34914	1795.645	40.63239
49.40308	1795.118	44.79696
49.45704	1793.867	45.74978
49.51098	1793.102	48.65455
49.56493	1790.208	45.13561
49.61889	1790.563	41.36613
49.67283	1786.626	44.61805
49.72678	1789.313	42.47367
49.78074	1781.496	44.32885
49.83468	1779.409	43.995
49.88863	1776.786	41.31662
49.94258	1782.303	39.54082
49.99653	1773.488	43.16618
50.05048	1775.162	37.06909
50.10443	1770.282	41.86908
50.15838	1770.3	41.42292
50.21233	1770.133	42.15857
50.26628	1771.025	39.93529
50.32023	1763.795	39.4726
50.37418	1766.292	41.23115
50.42813	1759.19	45.02926
50.48208	1760.063	43.97984
50.53603	1758.521	39.74122
50.58998	1759.853	39.33826
50.64393	1753.907	41.72732
50.69788	1754.118	41.89975
50.75183	1749.709	44.4598
50.80578	1753.077	43.32286
50.85973	1746.009	44.02158
50.91368	1747.672	46.11759
50.96763	1746.129	44.72943
51.02158	1746.994	42.5956
51.07553	1739.916	45.33696
51.12948	1742.626	41.18097
51.18343	1738.015	42.25753
51.23738	1736.244	39.27193
51.29133	1734.404	46.63649
51.34528	1735.651	42.23169
51.39923	1726.893	44.50722
51.45318	1729.848	41.30297
51.50713	1729.045	44.23781
51.56108	1728.4	45.49733
51.61503	1724.446	47.68282
51.66898	1725.934	45.75047
51.72293	1716.87	44.939
51.77688	1718.272	42.72508
51.83083	1716.63	45.40333
51.88478	1717.271	43.79407
51.93872	1713.899	42.32958
51.99268	1715.055	42.0477
52.04663	1709.035	42.35139
52.10057	1712.484	42.35323
52.15453	1708.729	39.23624
52.20848	1709.459	39.659
52.26242	1706.484	43.86068
52.31638	1705.122	41.13465
52.37032	1701.161	40.58836
52.42427	1701.514	40.04431
52.47823	1698.729	38.89468
52.53217	1696.904	40.54502
52.58612	1694.028	41.25988
52.64007	1693.692	39.76836
52.69402	1692.83	40.13939
52.74797	1689.687	39.56412
52.80192	1690.793	37.62213
52.85587	1690.627	37.85849
52.90982	1688.622	38.56015
52.96377	1684.328	40.55727
53.01772	1685.387	38.72061
53.07167	1682.051	37.91995
53.12562	1684.493	37.2754
53.17957	1678.792	40.2967
53.23352	1680.359	41.24747
53.28747	1674.465	39.36455
53.34142	1674.879	39.32391
53.39537	1672.031	37.45942
53.44932	1674.823	37.06522
53.50327	1669.116	39.32678
53.55722	1672.224	38.7826
53.61117	1667.125	41.39498
53.66512	1667.889	35.81183
53.71907	1659.603	40.32808
53.77302	1663.188	37.22393
53.82697	1661.462	39.0272
53.88092	1662.213	41.58245
53.93487	1657.732	38.81219
53.98882	1657.268	38.2531
54.04277	1651.512	38.69237
54.09672	1653.841	39.85217
54.15067	1645.212	39.10756
54.20462	1647.07	37.74999
54.25857	1644.443	37.21189
54.31252	1645.843	36.92512
54.36647	1640.774	38.47788
54.42042	1642.757	40.25331
54.47437	1640.123	43.85155
54.52832	1642.966	39.64338
54.58227	1634.945	38.36524
54.63622	1637.059	41.18093
54.69017	1630.977	42.97803
54.74412	1633.538	43.08171
54.79807	1627.616	45.59867
54.85202	1628.682	42.59785
54.90597	1622.192	38.86174
54.95992	1624.809	38.29221
55.01387	1622.399	40.54075
55.06781	1623.903	37.95679
55.12177	1620.709	42.06116
55.17572	1620.903	39.34317
55.22966	1616.03	36.6204
55.28362	1615.86	35.91417
55.33757	1611.984	35.90084
55.39151	1609.683	36.82072
55.44547	1610.424	38.5476
55.49941	1611.011	40.19748
55.55336	1611.854	40.16127
55.60732	1608.556	40.22312
55.66126	1609.527	39.74349
55.71521	1603.605	36.34918
55.76917	1606.403	38.72206
55.82311	1602.94	40.54255
55.87706	1604.265	42.20101
55.93101	1598.832	38.14672
55.98496	1599.598	37.38865
56.03891	1593.44	36.53298
56.09286	1594.763	36.90924
56.14681	1587.093	38.04861
56.20076	1593.053	38.23169
56.25471	1586.403	38.01638
56.30866	1589.343	35.48987
56.36261	1582.969	38.35055
56.41656	1585.332	37.52951
56.47051	1578.531	36.66265
56.52446	1581.258	33.98262
56.57841	1575.687	38.53193
56.63236	1579.278	35.84741
56.68631	1572.854	36.6738
56.74026	1578.235	36.14128
56.79421	1572.032	37.49723
56.84816	1574.644	36.63145
56.90211	1567.433	37.83828
56.95606	1568.745	38.98546
57.01001	1566.353	38.0213
57.06396	1567.882	37.62619
57.11791	1558.703	39.75262
57.17186	1562.381	39.07558
57.22581	1557.511	39.84601
57.27976	1558.792	39.48246
57.33371	1552.153	39.36045
57.38766	1556.272	37.27397
57.44161	1550.795	37.91548
57.49556	1554.726	35.37175
57.54951	1552.303	41.72439
57.60346	1552.266	39.63259
57.65741	1546.313	35.48497
57.71136	1545.582	35.73615
57.76531	1543.202	33.90107
57.81926	1545.154	34.97671
57.87321	1542.667	37.55913
57.92715	1542.431	38.30112
57.98111	1541.26	37.80219
58.03506	1539.899	35.90404
58.089	1538.962	35.14214
58.14296	1535.735	35.18203
58.1969	1534.137	34.5147
58.25085	1531.431	36.18279
58.30481	1531.209	37.93199
58.35875	1528.209	36.7576
58.4127	1530.218	36.51557
58.46666	1526.598	36.65328
58.5206	1529.32	36.31814
58.57455	1524.477	33.51337
58.6285	1526.436	35.88206
58.68245	1518.829	37.46177
58.7364	1519.004	38.50911
58.79035	1515.208	36.24805
58.8443	1516.337	31.73407
58.89825	1514.012	35.25068
58.9522	1516.516	35.94038
59.00615	1509.494	35.6716
59.0601	1511.896	35.86617
59.11405	1507.023	41.07533
59.168	1512.609	37.81827
59.22195	1504.001	35.19154
59.2759	1506.431	32.18633
59.32985	1500.848	37.59781
59.3838	1503.192	35.63931
59.43775	1497.478	35.69218
59.4917	1501.471	36.21524
59.54565	1493.346	34.73015
59.5996	1497.269	35.077
59.65355	1490.802	35.7879
59.7075	1494.041	34.14821
59.76145	1489.355	36.88942
59.8154	1491.443	35.68113
59.86935	1485.339	34.15202
59.9233	1489.824	31.99947
59.97725	1482.92	35.81677
60.0312	1489.369	31.31111
60.08515	1477.213	34.45732
60.1391	1481.103	34.31404
60.19305	1477.855	33.06531
60.247	1480.197	36.66675
60.30095	1473.448	41.43426
60.3549	1476.746	37.96573
60.40885	1474.884	32.50829
60.4628	1476.901	31.58656
60.51675	1470.686	35.06735
60.5707	1470.321	33.17676
60.62465	1467.685	32.12124
60.6786	1468.492	33.29944
60.73255	1465.281	35.45462
60.7865	1464.818	36.07699
60.84045	1459.798	35.24605
60.8944	1458.715	35.31505
60.94835	1458.092	34.2706
61.0023	1459.724	35.94449
61.05624	1460.351	36.66438
61.1102	1457.399	35.37535
61.16415	1457.249	36.70445
61.21809	1450.959	34.42317
61.27205	1451.602	32.71088
61.326	1450.43	32.52069
61.37994	1452.11	33.97168
61.4339	1446.882	36.038
61.48784	1448.882	32.83952
61.54179	1444.861	33.26265
61.59575	1448.702	29.00747
61.64969	1442.747	33.38411
61.70364	1444.625	33.99124
61.7576	1438.623	36.60423
61.81154	1443.885	35.11935
61.86549	1436.14	37.27821
61.91944	1437.054	37.6669
61.97339	1433.785	34.91131
62.02734	1438.375	32.55641
62.08129	1434.116	33.34152
62.13524	1435.381	31.92692
62.18919	1428.235	34.11531
62.24314	1430.931	32.87991
62.29709	1427.106	34.09979
62.35104	1431.225	34.25842
62.40499	1424.04	31.59354
62.45894	1427.437	30.60832
62.51289	1422.348	36.39671
62.56684	1424.366	38.45547
62.62079	1417.823	34.4646
62.67474	1419.194	30.56417
62.72869	1413.53	34.14539
62.78264	1419.773	36.94995
62.83659	1410.808	39.7654
62.89054	1415.543	36.81209
62.94449	1409.761	35.30194
62.99844	1414.209	33.0365
63.05239	1406.983	40.99737
63.10634	1412.081	34.22459
63.16029	1404.663	35.55695
63.21424	1409.102	32.24225
63.26819	1402.167	36.83203
63.32214	1409.279	32.85041
63.37609	1399.535	35.2576
63.43004	1403.686	34.05681
63.48399	1399.988	31.73373
63.53794	1400.722	32.10787
63.59189	1394.747	36.51897
63.64584	1397.201	32.57179
63.69979	1395.37	32.42842
63.75374	1398.029	33.06875
63.80769	1391.865	33.32119
63.86164	1392.245	33.89262
63.91558	1390.671	34.53456
63.96954	1392.752	32.42465
64.02348	1390.782	32.32495
64.07744	1389.377	32.93997
64.13139	1390.153	34.31507
64.18533	1388.257	35.18895
64.23929	1386.723	32.94997
64.29324	1386.111	33.87952
64.34718	1387.32	35.35095
64.40113	1385.983	33.78936
64.45509	1384.899	35.12016
64.50903	1381.725	35.41115
64.56298	1384.146	34.89448
64.61694	1382.015	33.52673
64.67088	1384.351	34.92659
64.72483	1380.368	33.13158
64.77879	1383.96	35.62968
64.83273	1378.238	36.09941
64.88668	1383.969	34.93745
64.94064	1376.208	35.17198
64.99458	1380.019	31.46966
65.04853	1377.197	33.88124
65.10249	1376.93	33.22178
65.15643	1373.441	34.46827
65.21038	1375.89	34.32974
65.26433	1369.691	36.14278
65.31828	1375.545	33.03019
65.37223	1371.567	34.07037
65.42618	1375.857	31.64493
65.48013	1370.858	37.51969
65.53408	1376.571	35.51875
65.58803	1369.646	34.06309
65.64198	1373.706	34.31218
65.69593	1368.729	34.59694
65.74988	1371.282	33.47886
65.80383	1368.986	35.77805
65.85778	1373.527	34.86469
65.91173	1369.677	36.13639
65.96568	1373.177	36.65146
66.01963	1369.478	37.50246
66.07358	1373.417	36.82761
66.12753	1367.008	37.17437
66.18148	1373.707	37.89879
66.23543	1369.429	36.45912
66.28938	1374.744	31.50655
66.34333	1370.302	36.04485
66.39728	1377.422	37.35375
66.45123	1373.11	36.94741
66.50518	1377.34	37.4841
66.55913	1373.714	39.62876
66.61308	1377.106	37.08985
66.66703	1375.361	41.48312
66.72098	1382.048	37.93938
66.77493	1377.196	36.56428
66.82887	1381.527	36.58775
66.88283	1381.555	38.42326
66.93678	1386.634	36.32027
66.99072	1381.336	38.00132
67.04468	1386.611	39.61323
67.09863	1385.337	37.01553
67.15257	1388.88	33.99045
67.20653	1389.411	38.23738
67.26048	1395.254	38.99788
67.31442	1393.418	38.81285
67.36838	1397.13	39.90812
67.42233	1397.179	39.45707
67.47627	1402.554	41.19993
67.53023	1406.839	42.22759
67.58418	1408.573	40.00718
67.63812	1411.106	40.69027
67.69207	1413.347	42.54145
67.74603	1415.534	41.00791
67.79997	1417.203	40.45386
67.85392	1422.832	42.87844
67.90788	1424.3	39.65289
67.96182	1428.145	36.82721
68.01577	1431.559	41.92661
68.06973	1438.44	40.65214
68.12367	1440.079	40.14269
68.17762	1446.62	37.04523
68.23158	1445.682	43.24487
68.28552	1457.71	42.311
68.33947	1459.008	45.15386
68.39342	1466.512	43.227
68.44737	1467.065	43.67924
68.50132	1475.866	47.2255
68.55527	1475.957	47.00485
68.60922	1487.732	43.0599
68.66317	1487.607	46.55074
68.71712	1498.767	46.14396
68.77107	1499.266	45.74482
68.82502	1511.263	45.65432
68.87897	1512.278	48.85683
68.93292	1523.365	49.43555
68.98687	1525.789	49.8273
69.04082	1537.473	45.55823
69.09477	1538.121	50.25237
69.14872	1552.458	49.25776
69.20267	1552.622	49.08347
69.25661	1566.255	52.07272
69.31057	1569.449	49.9224
69.36452	1582.604	50.58238
69.41846	1587.634	54.35872
69.47242	1602.234	50.70562
69.52637	1605.769	53.66302
69.58031	1621.104	52.86599
69.63427	1628.741	53.00956
69.68822	1640.781	54.42104
69.74216	1649.844	53.79524
69.79612	1663.09	51.58813
69.85007	1672.209	52.8571
69.90401	1680.946	56.8018
69.95796	1695.887	57.18859
70.01192	1703.586	57.63662
70.06586	1717.162	60.18314
70.11981	1727.624	59.73235
70.17377	1742.886	58.80725
70.22771	1751.828	62.83199
70.28166	1768.448	63.29213
70.33562	1780.031	62.53725
70.38956	1795.26	62.42324
70.44351	1803.311	63.07483
70.49747	1822.637	64.07774
70.55141	1835.471	69.0426
70.60536	1853.896	68.23771
70.65932	1860.158	65.17843
70.71326	1879.275	62.7512
70.76721	1892.791	68.55174
70.82116	1917.695	66.33768
70.87511	1924.01	69.54104
70.92906	1943.048	68.42177
70.98301	1955.077	74.43133
71.03696	1976.799	70.21281
71.09091	1988.611	73.73754
71.14486	2010.689	70.55174
71.19881	2019.502	75.36401
71.25276	2041.588	74.18272
71.30671	2053.444	73.18589
71.36066	2078.146	69.74603
71.41461	2085.54	74.22355
71.46856	2113.789	74.32558
71.52251	2125.987	74.3605
71.57646	2156.925	73.01778
71.63041	2162.272	75.75978
71.68436	2184.844	75.42081
71.73831	2201.899	81.49543
71.79226	2227.563	79.8567
71.84621	2239.382	83.98785
71.90016	2267.355	79.92272
71.95411	2276.058	79.68599
72.00806	2304.181	80.08836
72.06201	2317.719	85.58125
72.11596	2346.745	80.67804
72.16991	2364.393	81.67799
72.22386	2392.798	82.80885
72.27781	2409.222	79.54066
72.33176	2431.208	80.50876
72.3857	2451.89	81.76199
72.43966	2477.147	81.93993
72.49361	2492.974	81.76659
72.54755	2513.525	80.78284
72.60151	2530.335	79.37343
72.65546	2546.246	81.34937
72.7094	2562.615	85.03751
72.76336	2579.527	82.29424
72.81731	2596.779	80.1168
72.87125	2612.888	83.41122
72.92521	2631.903	83.44911
72.97916	2641.385	79.65377
73.0331	2662.271	79.20208
73.08706	2673.997	80.69502
73.14101	2693.523	76.27443
73.19495	2695.172	77.80851
73.2489	2717.458	81.0798
73.30286	2721.142	78.27787
73.3568	2744.427	75.32731
73.41075	2737.665	77.55264
73.46471	2759.694	72.97176
73.51865	2755.414	74.08908
73.5726	2773.585	75.93759
73.62656	2769.094	79.43147
73.6805	2787.472	76.12862
73.73445	2785.562	81.41294
73.78841	2805.094	74.48043
73.84235	2801.02	75.88521
73.8963	2817.365	69.09956
73.95025	2817.824	69.17065
74.0042	2830.414	67.37056
74.05815	2823.823	67.91379
74.1121	2839.987	70.72992
74.16605	2836.283	68.97698
74.22	2853.62	69.97165
74.27395	2846.172	73.39285
74.3279	2863.142	69.48397
74.38185	2855.326	76.42751
74.4358	2869.712	68.9294
74.48975	2861.381	76.38092
74.5437	2877.097	73.88652
74.59765	2874.493	78.81316
74.6516	2888.8	74.3559
74.70555	2879.8	73.74263
74.7595	2893.334	72.26796
74.81345	2883.7	70.84118
74.8674	2897.631	69.95914
74.92135	2889.563	73.29347
74.9753	2903.356	74.44649
75.02925	2899.622	75.01077
75.0832	2908.635	71.32256
75.13715	2908.47	68.45003
75.1911	2912.816	68.31989
75.24505	2920.304	69.53135
75.299	2917.357	72.40317
75.35295	2924.75	72.74011
75.4069	2925.707	73.61295
75.46085	2938.98	72.91689
75.51479	2929.798	72.07899
75.56875	2940.88	67.69649
75.6227	2931.837	69.24012
75.67664	2947.904	65.02972
75.7306	2933.492	67.64716
75.78455	2951.98	70.32175
75.83849	2937.296	70.82121
75.89245	2954.129	68.47457
75.9464	2943.994	69.29639
76.00034	2960.369	64.43866
76.0543	2948.197	70.18844
76.10825	2962.269	66.26115
76.16219	2949.776	72.97659
76.21615	2969.62	69.47469
76.2701	2955.239	74.79535
76.32404	2971.46	66.43538
76.37799	2958.193	73.04942
76.43195	2966	69.67971
76.48589	2962.391	73.56345
76.53984	2977.053	67.97462
76.5938	2969.354	69.05756
76.64774	2977.531	68.24713
76.70169	2971.56	63.90901
76.75565	2979.224	62.47177
76.80959	2979.874	63.60208
76.86354	2983.83	68.5155
76.9175	2987.503	68.32754
76.97144	2987.77	66.10389
77.02539	2990.792	68.75568
77.07935	2989.504	69.55035
77.13329	3002.98	64.12643
77.18724	2993.879	71.1192
77.24119	3002.121	71.93787
77.29514	2991.522	66.88874
77.34909	3003.317	60.78249
77.40304	2992.21	69.78728
77.45699	3006.386	70.99708
77.51094	2995.419	67.33869
77.56489	3014.039	64.32327
77.61884	2997.392	70.03188
77.67279	3010.556	60.4521
77.72674	2994.519	65.68144
77.78069	3008.456	62.28777
77.83464	2997.372	68.05956
77.88859	3009.15	68.46857
77.94254	3001.262	68.99026
77.99649	3011.077	68.42574
78.05044	2996.507	72.83072
78.10439	3014.833	67.1769
78.15834	2999.717	70.40406
78.21229	3015.956	68.4869
78.26624	3004.513	71.91787
78.32019	3017.422	66.05542
78.37414	3003.304	75.72385
78.42809	3016.708	68.23236
78.48204	3005.031	76.30913
78.53599	3016.524	69.29431
78.58994	3008.773	73.86127
78.64389	3023.286	68.86741
78.69784	3008.367	70.96528
78.75179	3022.291	68.29282
78.80573	3013.532	70.58673
78.85969	3028.476	67.75913
78.91364	3019.232	71.33823
78.96758	3031.649	72.79577
79.02154	3025.49	71.05906
79.07549	3025.279	66.92224
79.12943	3028.286	65.75394
79.18339	3028.95	66.43428
79.23734	3033.433	66.20627
79.29128	3029.582	68.90391
79.34524	3035.481	69.52108
79.39919	3028.647	72.31332
79.45313	3032.746	70.41471
79.50708	3027.587	69.99493
79.56104	3044.51	69.2421
79.61498	3029.802	71.54057
79.66893	3047.208	66.95661
79.72289	3027.875	78.02145
79.77683	3045.805	69.87831
79.83078	3030.495	75.05276
79.88474	3047.675	67.23129
79.93868	3029.657	66.97593
79.99263	3044.976	61.65669
80.04659	3027.229	63.49483
80.10053	3048.692	63.09199
80.15448	3036.094	72.21693
80.20844	3049.983	69.03339
80.26238	3035.907	75.88124
80.31633	3049.472	71.33265
80.37028	3034.437	72.74181
80.42423	3051.763	70.89664
80.47818	3034.801	68.21574
80.53213	3052.489	66.87607
80.58608	3038.284	72.03715
80.64003	3051.366	62.44049
80.69398	3034.702	67.87827
80.74793	3052.02	61.14756
80.80188	3041.493	66.48663
80.85583	3058.539	62.47364
80.90978	3041.418	62.41373
80.96373	3057.695	64.74788
81.01768	3045.001	67.65802
81.07162	3058.376	63.58229
81.12558	3048.099	65.07308
81.17953	3058.833	67.66552
81.23347	3049.642	70.00085
81.28743	3059.867	66.96208
81.34138	3056.52	66.63422
81.39532	3064.816	66.8998
81.44928	3065.661	64.5351
81.50323	3068.357	62.45689
81.55717	3066.123	66.28956
81.61113	3068.323	65.05723
81.66508	3069.897	61.01519
81.71902	3070.062	64.12289
81.77298	3072.572	67.37898
81.82693	3070.889	64.74194
81.88087	3075.365	62.47977
81.93482	3072.335	65.02663
81.98878	3079.075	65.19395
82.04272	3071.255	63.73605
82.09667	3080.935	66.83387
82.15063	3073.565	68.55922
82.20457	3090.083	66.9193
82.25852	3078.114	64.47359
82.31248	3089.23	62.16965
82.36642	3080.481	64.35066
82.42037	3093.967	62.44103
82.47433	3082.9	65.27042
82.52827	3100.214	63.95532
82.58222	3084.574	65.69568
82.63618	3099.379	58.07619
82.69012	3087.166	70.32141
82.74407	3106.743	68.37733
82.79802	3094.382	69.6519
82.85197	3108.274	61.00057
82.90592	3093.255	69.78529
82.95987	3109.288	62.47369
83.01382	3099.267	67.44057
83.06777	3112.087	63.11758
83.12172	3095.176	62.78026
83.17567	3114.161	61.15773
83.22962	3097.481	66.06715
83.28357	3115.127	64.06257
83.33752	3100.819	61.50211
83.39147	3115.642	60.58776
83.44542	3094.432	69.15593
83.49937	3116.235	59.03795
83.55332	3103.784	61.59391
83.60727	3120.047	60.26342
83.66122	3108.451	64.99849
83.71517	3123.66	62.61776
83.76912	3105.55	64.878
83.82307	3129.025	59.63808
83.87702	3116.867	63.12866
83.93097	3134.064	58.289
83.98492	3111.449	65.13201
84.03887	3127.863	60.99858
84.09282	3108.035	64.18294
84.14677	3127.459	58.49822
84.20072	3116.221	67.5768
84.25467	3129.23	66.27888
84.30862	3114.359	65.42468
84.36256	3129.533	64.69189
84.41652	3117.486	68.97546
84.47047	3128.004	66.92863
84.52441	3118.291	65.1115
84.57837	3127.369	62.74329
84.63232	3122.967	64.75898
84.68626	3131.01	62.08933
84.74022	3126.05	64.69896
84.79417	3127.238	67.55912
84.84811	3123.791	62.85671
84.90207	3127.456	60.3303
84.95602	3125.158	62.65343
85.00996	3127.999	62.18654
85.06391	3130.465	62.05003
85.11787	3123.437	64.16256
85.17181	3123.734	67.50777
85.22576	3120.705	66.57831
85.27972	3129.136	61.42532
85.33366	3122.644	61.92979
85.38761	3130.734	59.99915
85.44157	3119.432	62.50405
85.49551	3125.426	58.0674
85.54946	3117.731	61.32708
85.60342	3126.731	55.68649
85.65736	3112.445	59.2567
85.71131	3127.877	57.37071
85.76527	3107.476	59.11545
85.81921	3123.088	58.90218
85.87316	3109.92	60.92204
85.92711	3124.863	58.12693
85.98106	3105.405	58.56466
86.03501	3120.599	51.33647
86.08896	3101.824	61.56676
86.14291	3123.045	53.73864
86.19686	3098.433	58.73613
86.25081	3113.019	52.74021
86.30476	3097.795	56.22916
86.35871	3109.5	53.00338
86.41266	3089.207	59.40723
86.46661	3099.689	54.32217
86.52056	3084.614	55.99921
86.57451	3100.48	56.49574
86.62846	3081.777	53.88797
86.68241	3097.379	54.31289
86.73636	3078.804	60.78068
86.79031	3096.391	51.7043
86.84426	3075.678	55.60783
86.89821	3087.69	50.25163
86.95216	3067.106	54.99979
87.00611	3080.615	49.13528
87.06006	3062.425	58.37813
87.11401	3078.064	50.03163
87.16796	3056.626	55.33987
87.22191	3069.796	52.40366
87.27586	3048.119	51.40709
87.32981	3065.866	49.37443
87.38376	3049.081	56.74311
87.43771	3066.383	48.14433
87.49165	3039.765	54.95287
87.54561	3056.795	49.16223
87.59956	3039.727	52.46668
87.6535	3052.231	48.05508
87.70746	3033.329	57.85116
87.76141	3048.325	50.53439
87.81535	3029.806	48.74881
87.86931	3040.27	46.70271
87.92326	3028.24	53.32949
87.9772	3036.243	46.74513
88.03116	3022.396	47.13528
88.08511	3033.201	43.45082
88.13905	3022.505	49.05857
88.19301	3027.549	47.40853
88.24696	3017.526	50.63959
88.3009	3019.312	47.88967
88.35485	3014.171	51.03518
88.40881	3016.561	49.28772
88.46275	3011.949	48.20259
88.5167	3008.434	50.02185
88.57066	3010.555	47.45851
88.6246	3003.69	48.40907
88.67855	3005.668	46.89539
88.73251	2997.443	42.9153
88.78645	2999.393	44.23293
88.8404	2994.011	47.90269
88.89436	3000.857	48.76402
88.9483	2990.139	51.50393
89.00225	3000.344	48.08089
89.0562	2980.217	49.84184
89.11015	2996.455	45.98547
89.1641	2977.125	49.45774
89.21805	2990.783	45.01605
89.272	2967.005	45.68049
89.32595	2977.929	38.92629
89.3799	2958.981	44.18923
89.43385	2973.457	40.97081
89.4878	2957.938	46.00996
89.54175	2969.74	42.89412
89.5957	2948.86	45.42543
89.64965	2960.949	45.1642
89.7036	2945.118	47.95816
89.75755	2963.168	37.91939
89.8115	2941.805	46.67805
89.86545	2955.243	40.19741
89.9194	2931.685	50.00393
89.97335	2947.681	41.17544
90.0273	2924.323	47.56387
90.08125	2931.716	45.29993
90.1352	2913.404	45.70896
90.18915	2928.72	40.31602
90.2431	2910.652	43.39357
90.29705	2924.222	40.95502
90.351	2908.32	43.49277
90.40495	2917.198	39.36947
90.4589	2898.615	49.74804
90.51285	2911.053	45.55845
90.5668	2887.292	41.43335
90.62074	2901.87	41.33816
90.6747	2884.69	46.40144
90.72865	2898.558	39.56952
90.78259	2878.423	39.02792
90.83655	2895.93	37.23432
90.8905	2875.972	37.83997
90.94444	2887.453	34.84046
90.9984	2863.058	42.9548
91.05235	2879.33	44.67074
91.10629	2860.652	42.64894
91.16025	2874.262	32.13243
91.2142	2852.981	41.53527
91.26814	2867.09	38.27859
91.3221	2847.309	36.59632
91.37605	2860.416	32.65411
91.42999	2849.062	38.78313
91.48394	2858.946	36.01188
91.5379	2837.161	35.91398
91.59184	2848.117	32.4558
91.64579	2831.645	35.04367
91.69975	2840.041	33.60999
91.75369	2831.819	35.1982
91.80764	2833.217	36.87218
91.8616	2828.16	38.54424
91.91554	2823.405	35.37145
91.96949	2820.574	31.97075
92.02345	2818.084	31.72848
92.07739	2815.194	31.87642
92.13134	2810.399	33.41098
92.1853	2815.23	32.22372
92.23924	2806.176	31.43907
92.29319	2807.204	30.73039
92.34714	2800.208	29.09852
92.40109	2802.517	33.04543
92.45504	2789.115	32.7795
92.50899	2798.593	31.24707
92.56294	2785.978	33.15072
92.61689	2796.61	32.4636
92.67084	2781.084	34.06429
92.72479	2792.842	31.55613
92.77874	2769.254	34.19432
92.83269	2783.008	30.9575
92.88664	2765.621	31.61233
92.94059	2779.099	32.03704
92.99454	2758.563	34.91842
93.04848	2771.386	26.53702
93.10244	2747.676	32.67227
93.15639	2763.613	27.96539
93.21033	2741.413	27.67205
93.26429	2756.523	26.47242
93.31824	2738.598	32.03292
93.37218	2753.631	25.72991
93.42614	2726.574	31.61643
93.48009	2744.192	26.89734
93.53403	2721.813	34.85124
93.58799	2734.858	26.24594
93.64194	2713.378	28.20585
93.69588	2730.136	25.58115
93.74984	2710.328	28.42522
93.80379	2721.386	21.15345
93.85773	2703.683	33.99359
93.91168	2717.073	19.45674
93.96564	2696.986	28.52885
94.01958	2715.839	25.64174
94.07353	2692.191	29.09047
94.12749	2702.994	23.15028
94.18143	2679.484	30.91765
94.23538	2697.792	26.96908
94.28934	2682.173	31.26662
94.34328	2689.586	27.69199
94.39723	2676.831	25.19554
94.45119	2666.8	32.10387
94.50513	2679.453	29.88655
94.55908	2664.828	28.56423
94.61303	2658.337	26.93246
94.66698	2670.952	26.49627
94.72093	2662.033	25.939
94.77488	2651.959	29.86766
94.82883	2651.889	26.918
94.88278	2647.241	27.48152
94.93673	2653.375	21.34042
94.99068	2657.925	20.39589
