T[Â°C]	330nm [counts / mm]	S.D.
20.00049	4991.531	38.92324
20.0546	4997.025	42.67665
20.1087	4986.486	37.03066
20.16281	4980.47	30.25825
20.21692	4978.669	43.33518
20.27102	4972.405	39.72568
20.32513	4973.645	34.84629
20.37924	4964.625	41.99576
20.43335	4960.276	31.79552
20.48745	4957.1	38.06055
20.54156	4954.608	34.41908
20.59567	4947.487	29.69305
20.64977	4952.683	38.17232
20.70388	4938.057	30.08033
20.75799	4941.327	36.50069
20.8121	4931.998	32.54937
20.8662	4923.571	38.7204
20.92031	4920.629	38.17205
20.97442	4918.163	39.51765
21.02852	4912.825	45.42179
21.08263	4915.189	40.4278
21.13674	4912.655	34.94057
21.19084	4907.241	36.70733
21.24495	4900.935	32.07552
21.29906	4897.722	35.40602
21.35316	4893.701	33.71649
21.40727	4891.052	34.11969
21.46138	4891.405	39.49339
21.51549	4880.228	34.08045
21.56959	4875.352	29.90288
21.6237	4881.769	30.48543
21.67781	4881.729	37.10663
21.73191	4866.926	33.10395
21.78602	4866.698	34.31119
21.84013	4861.465	25.99889
21.89424	4856.638	23.98386
21.94834	4857.668	30.02312
22.00245	4845.249	30.90668
22.05656	4851.845	35.74406
22.11066	4842.856	36.00547
22.16477	4835.128	34.46453
22.21888	4834.93	39.73139
22.27298	4835.678	29.55499
22.32709	4824.873	33.71955
22.3812	4834.579	28.03745
22.4353	4820.299	34.81454
22.48941	4816.645	37.24671
22.54352	4806.6	27.93117
22.59763	4807.047	32.00403
22.65173	4800.622	38.72016
22.70584	4799.782	33.65639
22.75995	4800.344	32.5909
22.81405	4794.98	35.19483
22.86816	4792.138	34.55178
22.92227	4777.931	27.84612
22.97638	4779.708	34.64268
23.03048	4776.651	29.98718
23.08459	4771.895	34.22738
23.1387	4768.695	32.32688
23.1928	4770.272	36.52102
23.24691	4767.06	28.3545
23.30102	4762.642	27.08759
23.35512	4762.38	36.91434
23.40923	4758.759	33.02336
23.46334	4752.762	35.46324
23.51744	4747.836	35.31423
23.57155	4746.17	33.67067
23.62566	4739.125	32.30611
23.67977	4740.626	34.52058
23.73387	4733.431	32.42814
23.78798	4722.648	27.62355
23.84209	4725.256	24.89815
23.89619	4717.739	28.08562
23.9503	4718.851	32.30087
24.00441	4718.269	31.88371
24.05852	4711.517	35.44117
24.11262	4710.64	35.6286
24.16673	4710.33	28.15083
24.22084	4705.454	26.77731
24.27494	4697.105	29.7904
24.32905	4693.585	32.88945
24.38316	4688.506	33.14694
24.43726	4681.527	33.75036
24.49137	4677.142	35.32741
24.54548	4674.343	35.02827
24.59958	4673.367	30.92845
24.65369	4672.624	22.06215
24.7078	4666.963	21.73046
24.76191	4659.806	26.44936
24.81601	4659.633	28.8676
24.87012	4655.465	30.40092
24.92423	4649.042	32.06869
24.97833	4649.074	34.07155
25.03244	4645.182	35.34159
25.08655	4641.5	38.17516
25.14066	4638.287	36.08759
25.19476	4633.82	32.53782
25.24887	4630.193	28.2583
25.30298	4628.213	28.82005
25.35708	4624.493	28.97116
25.41119	4617.854	27.15583
25.4653	4616.533	27.58966
25.5194	4615.737	26.66198
25.57351	4606.985	27.42287
25.62762	4603.013	29.16211
25.68172	4603.368	29.18614
25.73583	4605.48	31.98832
25.78994	4600.878	30.80393
25.84405	4592.089	30.06275
25.89815	4587.698	30.23305
25.95226	4581.062	29.95549
26.00637	4583.295	24.68804
26.06047	4580.019	25.42213
26.11458	4567.874	29.91994
26.16869	4564.718	26.00147
26.2228	4560.248	26.73508
26.2769	4571.126	26.82115
26.33101	4562.02	28.62681
26.38512	4562.61	30.66859
26.43922	4553.58	31.78753
26.49333	4545.546	29.46941
26.54744	4542.314	25.72306
26.60155	4538.141	35.81648
26.65565	4537.615	32.96059
26.70976	4532.054	33.77707
26.76386	4531.432	33.68109
26.81797	4525.762	23.13084
26.87208	4521.378	26.71609
26.92619	4522.529	30.49124
26.98029	4518.761	33.88878
27.0344	4511.809	30.22026
27.08851	4512.594	34.44255
27.14261	4504.942	31.04164
27.19672	4498.746	26.60497
27.25083	4502.076	25.25239
27.30494	4495.831	36.55215
27.35904	4495.979	28.77088
27.41315	4489.767	26.56814
27.46726	4487.964	29.86202
27.52136	4484.313	29.89424
27.57547	4483.222	24.92817
27.62958	4479.657	29.72649
27.68369	4472.949	27.79629
27.73779	4464.766	28.05103
27.7919	4459.361	31.23407
27.84601	4456.092	36.86287
27.90011	4457.777	34.48911
27.95422	4450.595	28.74331
28.00833	4445.338	29.16421
28.06243	4447.709	30.58321
28.11654	4444.708	25.72841
28.17065	4437.84	30.16538
28.22475	4435.438	31.52233
28.27886	4432.258	31.46421
28.33297	4424.252	25.88046
28.38708	4422.65	25.87114
28.44118	4422.072	33.02465
28.49529	4420.953	33.03324
28.5494	4417.484	30.11902
28.6035	4410.419	28.43339
28.65761	4410.309	28.37042
28.71172	4410.246	28.47832
28.76583	4402.008	27.55971
28.81993	4396.954	28.18133
28.87404	4396.635	25.74439
28.92815	4393.91	24.80777
28.98225	4392.105	27.31668
29.03636	4387.872	30.8912
29.09047	4381.664	24.14044
29.14457	4377.12	20.05851
29.19868	4375.248	24.50108
29.25279	4374.362	29.11364
29.30689	4369.448	27.11585
29.361	4367.089	25.08669
29.41511	4363.793	30.44999
29.46922	4358.024	32.86657
29.52332	4355.896	29.19874
29.57743	4353.192	27.57889
29.63154	4347.757	28.9323
29.68564	4342.906	29.30541
29.73975	4341.093	23.32795
29.79386	4339.415	27.7555
29.84797	4333.223	30.78525
29.90207	4333.914	32.56622
29.95618	4325.017	25.3229
30.01029	4328.156	29.8147
30.06439	4319.241	30.56671
30.1185	4320.149	26.03428
30.17261	4309.246	24.28973
30.22671	4300.498	29.17475
30.28082	4308.248	35.92141
30.33493	4305.853	35.84798
30.38903	4300.544	32.87314
30.44314	4298.317	26.62086
30.49725	4290.39	28.80291
30.55136	4289.425	26.41615
30.60546	4285.265	28.54618
30.65957	4281.812	31.61978
30.71368	4283.251	22.23662
30.76778	4278.923	22.97341
30.82189	4273.771	26.45908
30.876	4272.242	23.35993
30.93011	4266.042	30.15673
30.98421	4265.561	27.9216
31.03832	4255.661	31.90468
31.09243	4257.888	28.82422
31.14653	4253.527	34.73471
31.20064	4250.986	23.51937
31.25475	4246.004	34.07673
31.30885	4238.819	29.42327
31.36296	4237.364	31.5537
31.41707	4236.092	27.28046
31.47117	4228.546	25.26558
31.52528	4228.096	26.3196
31.57939	4224.589	25.09732
31.6335	4221.74	26.76649
31.6876	4224.983	28.39079
31.74171	4218.268	25.55526
31.79582	4210.229	24.00416
31.84992	4212.337	26.87557
31.90403	4209.163	22.60209
31.95814	4207.668	24.94231
32.01225	4195.997	26.2652
32.06635	4192.851	25.67795
32.12046	4193.993	23.74556
32.17456	4189.946	28.81359
32.22867	4185.366	33.78399
32.28278	4183.711	32.32691
32.33689	4180.064	31.36631
32.391	4178.758	27.11049
32.4451	4172.781	21.92702
32.49921	4168.441	22.48798
32.55331	4169.369	26.0959
32.60742	4163.529	26.69827
32.66153	4160.58	24.75181
32.71564	4158.1	26.77923
32.76974	4154.952	27.74702
32.82385	4152.87	28.7594
32.87796	4150.059	31.43064
32.93206	4142.099	20.20114
32.98617	4139.314	24.27353
33.04028	4138.817	22.58545
33.09438	4133.112	24.83464
33.14849	4127.622	22.20151
33.2026	4126.774	24.60322
33.25671	4123.374	30.14649
33.31081	4121.518	35.24979
33.36492	4114.187	28.71985
33.41903	4115.374	22.69973
33.47313	4106.679	20.8432
33.52724	4112.69	30.29139
33.58135	4101.01	28.04817
33.63546	4104.263	27.66929
33.68956	4094.482	25.78072
33.74367	4094.482	24.68198
33.79778	4092.532	30.19285
33.85188	4092.229	21.19222
33.90599	4086.29	29.40444
33.9601	4082.042	21.96877
34.0142	4075.541	30.64158
34.06831	4074.948	20.24732
34.12242	4072.11	25.71062
34.17653	4068.111	25.9673
34.23063	4066.933	22.43052
34.28474	4064.524	20.89037
34.33884	4056.347	21.09179
34.39295	4059.98	23.50197
34.44706	4051.602	29.19657
34.50117	4047.245	30.85181
34.55527	4047.707	32.29786
34.60938	4043.478	23.16615
34.66349	4034.177	32.98085
34.71759	4032.902	25.39406
34.7717	4029.91	36.86573
34.82581	4029.188	30.1904
34.87992	4024.645	36.13067
34.93402	4023.732	31.98392
34.98813	4017.714	32.0076
35.04224	4012.405	29.89729
35.09634	4013.658	25.96501
35.15045	4011.539	26.12042
35.20456	4012.771	23.18292
35.25866	4005.529	18.08843
35.31277	3995.682	22.02948
35.36688	3998.818	26.69724
35.42099	3994.065	27.45315
35.47509	3994.758	22.82536
35.5292	3990.064	23.67485
35.58331	3983.638	27.87966
35.63741	3978.471	30.80355
35.69152	3975.844	32.5178
35.74563	3969.85	24.32674
35.79974	3969.289	22.48077
35.85384	3967.343	30.77269
35.90795	3964.369	29.38155
35.96206	3959.257	24.85768
36.01616	3955.326	21.43369
36.07027	3953.643	20.50498
36.12438	3954.095	25.47671
36.17848	3953.426	21.64058
36.23259	3945.352	21.39527
36.2867	3941.395	24.46068
36.34081	3937.847	23.2614
36.39491	3932.203	23.40507
36.44902	3929.018	24.16875
36.50312	3927.595	25.51642
36.55723	3927.797	27.34014
36.61134	3925.394	26.60645
36.66545	3920.299	20.78704
36.71955	3915.582	25.18605
36.77366	3916.44	26.2868
36.82777	3915.913	27.59749
36.88187	3909.51	29.34646
36.93598	3908.508	27.74915
36.99009	3899.866	29.38777
37.0442	3894.073	30.50017
37.0983	3894.659	33.30053
37.15241	3887.157	23.9798
37.20652	3884.113	25.74237
37.26062	3883.828	22.04198
37.31473	3884.99	26.50829
37.36884	3883.547	25.33905
37.42294	3875.302	26.21005
37.47705	3875.103	28.70681
37.53116	3869.699	20.28448
37.58527	3863.384	24.44146
37.63937	3859.547	28.46518
37.69348	3860.733	20.79085
37.74759	3853.248	21.78038
37.80169	3856.569	24.81931
37.8558	3850.926	24.76568
37.90991	3851.859	24.85461
37.96402	3845.21	34.3415
38.01812	3848.425	24.07499
38.07223	3840.199	25.46843
38.12634	3833.865	26.25066
38.18044	3834.243	28.47593
38.23455	3829.782	32.4875
38.28866	3826.837	32.299
38.34276	3824.202	28.81912
38.39687	3820.538	27.93303
38.45098	3817.32	28.71566
38.50508	3808.824	18.732
38.55919	3807.039	24.02093
38.6133	3809.115	23.72344
38.6674	3805.588	24.56041
38.72151	3797.697	25.83435
38.77562	3799.049	25.40547
38.82973	3790.438	20.70538
38.88383	3792.872	22.72682
38.93794	3789.421	24.72406
38.99205	3787.528	24.71063
39.04615	3779.746	27.21197
39.10026	3778.718	26.91909
39.15437	3776.723	15.06966
39.20848	3776.271	20.62617
39.26258	3768.15	14.22668
39.31669	3768.31	15.62361
39.3708	3768.878	27.42102
39.4249	3766.078	22.62868
39.47901	3757.951	17.68109
39.53312	3752.72	20.51052
39.58722	3752.326	19.88881
39.64133	3751.162	26.11757
39.69544	3747.493	30.40259
39.74955	3743.428	26.09091
39.80365	3735.782	24.09335
39.85776	3736.5	24.72646
39.91187	3737.183	23.55837
39.96597	3734.141	23.98456
40.02008	3730.95	25.94806
40.07419	3727.215	25.02305
40.1283	3724.638	23.86494
40.1824	3719.096	24.20579
40.23651	3714.904	22.19566
40.29062	3713.753	19.4204
40.34472	3710.427	20.75558
40.39883	3708.343	24.4459
40.45294	3706.239	18.76923
40.50705	3703.358	28.86078
40.56115	3701.758	27.2732
40.61526	3698.487	24.99795
40.66936	3698.165	21.37907
40.72347	3691.319	21.81717
40.77758	3687.458	24.5851
40.83168	3685.836	31.44539
40.88579	3687.195	33.05197
40.9399	3678.08	26.4545
40.99401	3679.449	26.21185
41.04811	3672.813	30.52557
41.10222	3671.65	27.06939
41.15633	3659.908	24.66581
41.21043	3661.552	27.88177
41.26454	3657.526	20.46748
41.31865	3658.221	25.04732
41.37276	3655.818	27.79503
41.42686	3652.511	25.23623
41.48097	3650.024	26.37841
41.53508	3647.07	26.19094
41.58918	3646.236	26.5697
41.64329	3643.708	26.70583
41.6974	3637.955	28.06978
41.75151	3635.318	26.25099
41.80561	3626.039	27.97523
41.85972	3627.191	26.15734
41.91383	3622.65	29.10137
41.96793	3619.618	32.16589
42.02204	3613.004	30.13541
42.07615	3610.924	23.93928
42.13025	3609.151	21.14607
42.18436	3607.993	20.97054
42.23847	3607.285	21.00333
42.29258	3608.076	23.658
42.34668	3603.05	24.65181
42.40079	3599.725	25.43041
42.4549	3593.02	26.78745
42.509	3592.839	21.92654
42.56311	3588.851	19.71555
42.61722	3584.291	22.94862
42.67133	3582.836	20.98626
42.72543	3578.993	22.08185
42.77954	3576.215	26.17517
42.83364	3572.5	21.88558
42.88775	3568.738	20.25062
42.94186	3567.089	21.92968
42.99596	3562.541	21.09424
43.05007	3559.473	22.88898
43.10418	3561.076	24.50209
43.15829	3559.656	24.13191
43.21239	3557.943	24.32928
43.2665	3556.207	26.00775
43.32061	3551.551	22.73993
43.37471	3546.458	16.91356
43.42882	3544.716	20.58463
43.48293	3537.736	20.68537
43.53704	3532.715	17.34658
43.59114	3535.14	18.35551
43.64525	3533.349	29.0169
43.69936	3525.494	22.28663
43.75346	3523.472	25.63813
43.80757	3518.98	21.17392
43.86168	3517.822	16.56217
43.91579	3510.72	23.93842
43.96989	3514.836	21.25907
44.024	3512.522	22.98365
44.07811	3509.516	26.01917
44.13221	3505.806	27.09469
44.18632	3499.764	22.80881
44.24043	3502.282	23.52882
44.29453	3493.363	22.64328
44.34864	3494.425	19.7377
44.40275	3491.673	21.89354
44.45686	3487.575	21.55648
44.51096	3484.271	22.7894
44.56507	3477.268	22.63935
44.61917	3478.797	20.60824
44.67328	3474.553	20.4865
44.72739	3474.863	23.34257
44.7815	3471.602	26.79696
44.83561	3465.984	23.84363
44.88971	3467.911	30.99948
44.94382	3464.617	31.88943
44.99792	3457.271	23.55751
45.05203	3459.763	18.50519
45.10614	3456.85	22.47746
45.16025	3453.492	18.78009
45.21435	3448.367	21.80229
45.26846	3443.523	24.9367
45.32257	3440.868	23.55768
45.37667	3436.908	28.48956
45.43078	3431.147	27.55361
45.48489	3431.713	26.86551
45.53899	3427.438	24.79201
45.5931	3427.846	20.71389
45.64721	3421.129	22.09554
45.70132	3419.843	12.97708
45.75542	3415.408	18.54848
45.80953	3418.785	17.64747
45.86364	3414.018	18.29367
45.91774	3407.893	20.90974
45.97185	3406.333	20.97914
46.02596	3407.077	26.63994
46.08007	3402.313	30.68825
46.13417	3404.164	22.41562
46.18828	3394.452	34.41306
46.24239	3397.489	25.28454
46.29649	3386.215	17.09081
46.3506	3387.192	17.10666
46.40471	3385.147	21.4791
46.45881	3383.665	17.99147
46.51292	3375.035	15.65027
46.56703	3375.046	15.23664
46.62114	3371.78	19.57207
46.67524	3372.122	20.55642
46.72935	3370.93	17.66354
46.78345	3369.109	20.91445
46.83756	3359.947	20.467
46.89167	3360.981	25.12784
46.94578	3359.481	25.05305
46.99989	3354.543	18.84442
47.05399	3350.323	19.35724
47.1081	3350.527	18.84726
47.1622	3346.133	22.24583
47.21631	3344.885	24.33114
47.27042	3340.471	21.52722
47.32453	3337	20.18251
47.37863	3334.057	22.90906
47.43274	3334.622	22.9185
47.48685	3331.873	20.1237
47.54095	3328.461	18.23901
47.59506	3321.339	17.88913
47.64917	3317.037	20.19107
47.70327	3316.497	20.422
47.75738	3314.315	19.0619
47.81149	3314.779	18.24601
47.8656	3312.168	20.1375
47.9197	3309.098	22.14996
47.97381	3307.579	17.84488
48.02792	3304.583	16.69087
48.08202	3301.873	19.48942
48.13613	3298.958	23.39029
48.19024	3291.854	21.94124
48.24435	3291.012	22.3305
48.29845	3284.857	21.83274
48.35256	3281.049	21.53654
48.40667	3279.275	18.31114
48.46077	3278.812	19.30757
48.51488	3281.908	14.68092
48.56899	3278.269	18.73163
48.62309	3274.917	17.91324
48.6772	3273.676	18.78274
48.73131	3269.631	15.9458
48.78542	3266.003	19.76714
48.83952	3262.119	18.43941
48.89363	3259.11	14.58264
48.94773	3257.357	20.3055
49.00184	3258.142	21.72862
49.05595	3252.743	19.99084
49.11006	3252.726	18.29967
49.16417	3244.146	24.18789
49.21827	3248.161	21.92548
49.27238	3241.024	19.69069
49.32648	3239.186	23.83848
49.38059	3236.599	18.54181
49.4347	3233.611	19.04368
49.48881	3228.505	19.85187
49.54291	3232.035	17.30898
49.59702	3223.857	18.96297
49.65113	3225.77	21.89442
49.70523	3217.677	22.24298
49.75934	3218.066	21.07864
49.81345	3212.54	22.6982
49.86755	3214.722	26.48316
49.92166	3208.231	19.42408
49.97577	3210.063	20.63111
50.02988	3201.248	17.87519
50.08398	3200.206	20.7979
50.13809	3190.686	20.9677
50.1922	3195.679	17.3471
50.2463	3191.265	14.68152
50.30041	3191.881	14.06157
50.35452	3189.304	17.55415
50.40863	3185.044	18.36406
50.46273	3174.929	22.68402
50.51684	3179.79	21.63832
50.57095	3172.674	25.91125
50.62505	3172.979	16.79236
50.67916	3171.907	18.53296
50.73327	3169.527	20.61049
50.78737	3165.585	19.26853
50.84148	3162.24	17.5985
50.89559	3159.572	19.84714
50.9497	3158.997	23.23731
51.0038	3149.084	18.16563
51.05791	3152.674	24.26811
51.11201	3149.914	22.85973
51.16612	3151.956	25.0791
51.22023	3141.406	20.595
51.27434	3140.476	17.69366
51.32845	3135.724	16.48534
51.38255	3134.271	16.74984
51.43666	3134.852	20.32588
51.49076	3133.28	21.10793
51.54487	3125.216	22.26101
51.59898	3127.305	17.04001
51.65309	3124.139	18.06032
51.70719	3121.413	18.22178
51.7613	3120.245	16.71029
51.81541	3119.257	18.37175
51.86951	3111.525	18.89555
51.92362	3110.464	20.63372
51.97773	3108.851	21.54004
52.03183	3104.605	20.10796
52.08594	3103.094	20.75534
52.14005	3101.422	20.9329
52.19416	3097.961	20.10894
52.24826	3097.399	19.42214
52.30237	3094.731	19.60661
52.35648	3087.358	21.86361
52.41058	3089.388	21.66812
52.46469	3086.438	20.2269
52.5188	3083.579	22.35643
52.57291	3077.068	26.32397
52.62701	3074.938	27.39144
52.68112	3072.162	22.0269
52.73523	3070.05	26.77582
52.78933	3068.036	24.05447
52.84344	3070.697	17.73403
52.89755	3066.334	17.39614
52.95165	3063.555	22.92456
53.00576	3056.194	17.10155
53.05987	3054.405	20.28396
53.11398	3048.303	20.253
53.16808	3054.908	21.99698
53.22219	3045.637	16.08443
53.27629	3050.885	15.84837
53.3304	3040.791	15.52424
53.38451	3041.432	21.64865
53.43862	3040.289	17.60383
53.49273	3036.224	19.60572
53.54683	3032.884	17.30404
53.60094	3032.808	16.0953
53.65504	3021.816	17.99079
53.70915	3027.19	18.13534
53.76326	3022.587	15.02424
53.81737	3020.056	15.02754
53.87147	3017.273	11.9695
53.92558	3014.791	9.535789
53.97969	3009.679	13.19512
54.03379	3008.463	17.48025
54.0879	3008.095	15.59951
54.14201	3004.425	15.66357
54.19611	3000.584	20.66603
54.25022	2999.892	21.37848
54.30433	2998.934	21.17814
54.35844	2994.067	20.55848
54.41254	2993.152	16.16607
54.46665	2988.096	16.92435
54.52076	2990.29	18.25736
54.57486	2987.359	18.84254
54.62897	2986.124	17.14747
54.68308	2981.812	18.9239
54.73719	2982.888	22.22721
54.79129	2975.257	20.62312
54.8454	2980.977	15.7929
54.89951	2969.772	20.47054
54.95361	2969.82	18.92953
55.00772	2960.238	17.87028
55.06183	2956.063	14.59154
55.11593	2958.787	15.46967
55.17004	2958.298	15.344
55.22415	2950.115	17.90497
55.27826	2953.566	15.40589
55.33236	2950.871	18.62915
55.38647	2953.583	17.58661
55.44057	2944.725	21.33977
55.49468	2943.562	23.74399
55.54879	2942.288	23.31462
55.6029	2942.561	17.46021
55.65701	2935.498	16.68308
55.71111	2936.583	17.00455
55.76522	2935.072	15.33769
55.81932	2933.516	20.13767
55.87343	2927.645	20.85308
55.92754	2932.223	19.74573
55.98165	2919.098	16.34365
56.03576	2918.854	20.10438
56.08986	2915.579	17.94691
56.14397	2911.844	17.56518
56.19807	2911.196	23.01787
56.25218	2912.717	21.67535
56.30629	2903.385	20.27389
56.36039	2901.441	17.34517
56.4145	2901.012	15.47995
56.46861	2898.097	16.50468
56.52272	2896.761	17.21022
56.57682	2893.019	19.97745
56.63093	2892.155	19.52933
56.68504	2889.65	15.15836
56.73914	2887.917	16.17092
56.79325	2882.487	15.79733
56.84736	2885.825	19.58682
56.90147	2884.502	14.2394
56.95557	2879.527	17.34502
57.00968	2876.073	19.13882
57.06379	2877.358	21.80143
57.11789	2871.332	20.17556
57.172	2867.635	20.61741
57.22611	2861.021	17.39215
57.28022	2858.672	17.53184
57.33432	2857.459	18.73549
57.38843	2862.759	16.38546
57.44254	2854.106	18.75144
57.49664	2855.485	13.72065
57.55075	2848.359	12.49767
57.60485	2852.193	14.17068
57.65896	2844.823	14.27114
57.71307	2849.318	15.94302
57.76718	2842.176	15.18878
57.82129	2842.119	21.66651
57.87539	2835.697	11.98829
57.9295	2834.699	17.73749
57.9836	2830.298	16.05658
58.03771	2829.915	17.01248
58.09182	2823.989	16.56448
58.14593	2824.785	20.16458
58.20004	2821.169	15.43537
58.25414	2822.136	15.89258
58.30825	2814.083	16.89616
58.36235	2817.717	18.96311
58.41646	2815.11	17.65064
58.47057	2814.253	15.6945
58.52468	2808.006	13.99749
58.57878	2809.16	12.92942
58.63289	2804.925	13.4254
58.687	2803.715	15.8479
58.7411	2798.957	22.90184
58.79521	2794.966	23.85801
58.84932	2794.653	21.04602
58.90342	2792.154	18.90235
58.95753	2787.625	17.80598
59.01164	2785.405	17.1879
59.06575	2787.077	19.59895
59.11985	2787.11	19.45496
59.17396	2782.829	15.27634
59.22807	2781.071	14.50352
59.28217	2779.822	13.33021
59.33628	2773.932	13.86524
59.39039	2769.235	14.64396
59.4445	2766.67	14.38939
59.4986	2767.969	14.76162
59.55271	2767.946	15.90838
59.60682	2766.493	16.32845
59.66092	2759.26	14.68301
59.71503	2759.856	14.25363
59.76914	2755.006	17.49955
59.82324	2755.937	22.02513
59.87735	2749.548	19.67354
59.93146	2750.393	18.40973
59.98557	2744.993	18.83976
60.03967	2741.544	17.80547
60.09378	2738.665	17.45521
60.14788	2742.869	17.80206
60.20199	2736.306	15.55303
60.2561	2739.193	19.50204
60.31021	2732.189	15.76337
60.36432	2734.381	15.0654
60.41842	2727.273	18.46353
60.47253	2724.292	17.51019
60.52663	2721.555	16.42454
60.58074	2723.997	18.15475
60.63485	2715.703	14.33685
60.68896	2719.885	9.184463
60.74306	2714.258	19.08761
60.79717	2716.525	19.82471
60.85128	2713.199	15.66575
60.90538	2707.787	18.06381
60.95949	2703.146	18.51884
61.0136	2707.586	17.54702
61.0677	2702.126	17.95806
61.12181	2703.276	22.18402
61.17592	2692.087	14.77254
61.23003	2694.276	14.24985
61.28413	2684.948	20.44333
61.33824	2690.781	14.42209
61.39235	2683.699	17.8625
61.44645	2683.073	15.87073
61.50056	2682.849	16.772
61.55467	2679.426	11.95292
61.60878	2674.447	13.5635
61.66288	2676.73	14.68389
61.71699	2673.325	10.51956
61.7711	2676.407	18.00805
61.8252	2673.487	11.13046
61.87931	2669.272	19.64218
61.93342	2659.5	9.340637
61.98752	2665.954	15.8536
62.04163	2661.347	22.00652
62.09574	2662.701	17.4924
62.14985	2654.479	16.6421
62.20395	2655.181	17.2709
62.25806	2649.599	18.08752
62.31216	2653.776	18.00148
62.36627	2647.795	19.705
62.42038	2647.305	18.40388
62.47449	2643.041	15.86343
62.52859	2642.855	16.47209
62.5827	2637.676	12.3681
62.63681	2639.221	13.86279
62.69091	2635.279	14.52885
62.74502	2634.659	12.26556
62.79913	2631.319	15.21127
62.85324	2629.688	18.47452
62.90734	2628.44	18.91209
62.96145	2628.57	17.63212
63.01556	2627.44	15.37792
63.06966	2624.531	13.51615
63.12377	2621.041	15.35372
63.17788	2619.979	16.99776
63.23198	2617.42	14.70187
63.28609	2612.424	13.73912
63.3402	2610.685	14.33079
63.39431	2608.039	18.27698
63.44841	2608.205	20.1108
63.50252	2607.117	14.11987
63.55663	2606.858	12.55568
63.61073	2602.265	12.90121
63.66484	2605.116	10.6443
63.71895	2601.776	13.80739
63.77306	2602.14	12.14425
63.82716	2593.181	12.88252
63.88127	2596.002	8.994725
63.93538	2590.724	12.16648
63.98948	2588.062	12.67382
64.04359	2587.894	17.13822
64.09769	2592.992	14.06247
64.1518	2582.569	17.9374
64.20591	2588.109	13.67659
64.26002	2579.151	21.86545
64.31413	2580.99	15.54313
64.36823	2578.17	18.22559
64.42234	2583.774	14.02003
64.47645	2572.295	14.94358
64.53056	2576.395	15.49908
64.58466	2571.233	14.12714
64.63876	2574.369	16.71271
64.69287	2567.972	15.58042
64.74698	2572.026	15.45502
64.80109	2567.232	14.50555
64.85519	2567.181	14.00112
64.9093	2564.968	15.10539
64.96341	2564.156	14.44614
65.01752	2556.595	13.56284
65.07162	2562.344	15.93819
65.12573	2556.268	12.28706
65.17984	2558.693	13.11411
65.23394	2558.406	13.38981
65.28805	2559.083	11.58684
65.34216	2558.174	10.68591
65.39626	2555.107	11.99484
65.45037	2556.52	12.77316
65.50448	2559.401	15.71452
65.55859	2555.134	12.77992
65.61269	2555.48	8.677037
65.6668	2557.67	13.13413
65.72091	2555.527	16.51315
65.77502	2559.674	17.47424
65.82912	2557.647	15.17589
65.88322	2555.375	17.53735
65.93733	2555.318	19.11338
65.99144	2558.212	16.2842
66.04555	2553.603	15.89345
66.09966	2558.194	15.12846
66.15376	2558.233	11.68798
66.20787	2567.066	13.34038
66.26198	2558.019	17.46643
66.31609	2565.462	18.79283
66.37019	2559.864	12.08637
66.4243	2568.212	14.66636
66.4784	2565.459	12.21239
66.53251	2567.917	16.29564
66.58662	2565.307	16.26632
66.64072	2570.184	15.23125
66.69483	2570.121	19.13045
66.74894	2573.784	19.24747
66.80305	2572.713	14.87269
66.85715	2583.92	16.48327
66.91126	2579.126	17.22887
66.96537	2584.965	18.80687
67.01948	2584.007	15.56378
67.07359	2588.575	13.74077
67.12769	2590.104	17.94441
67.18179	2596.274	15.21155
67.2359	2598.876	18.21622
67.29001	2605.096	14.78968
67.34412	2607.54	11.53564
67.39822	2613.323	14.38349
67.45233	2620.454	15.0255
67.50644	2624.624	13.48884
67.56055	2628.362	12.65053
67.61465	2631.61	13.62527
67.66876	2641.107	16.69319
67.72286	2640.977	15.40337
67.77697	2646.706	18.49174
67.83108	2651.407	13.89476
67.88519	2664.691	14.34837
67.93929	2665.639	19.42035
67.9934	2674.877	15.39416
68.04751	2678.53	17.61543
68.10162	2693.897	21.96685
68.15572	2695.973	21.00605
68.20983	2709.938	21.40055
68.26394	2712.251	15.99947
68.31805	2728.204	14.8294
68.37215	2731.528	16.41792
68.42625	2738.104	17.53161
68.48036	2749.726	15.56202
68.53447	2768.197	14.25447
68.58858	2768.665	16.60255
68.64268	2783.127	17.64696
68.69679	2791.324	20.08752
68.7509	2809.551	20.80295
68.80501	2818.607	18.87497
68.85912	2833.106	17.89093
68.91322	2843.852	17.05145
68.96732	2856.898	17.85065
69.02143	2869.751	17.32493
69.07554	2889.732	14.89168
69.12965	2905.467	11.41014
69.18375	2918.509	13.18991
69.23786	2931.897	18.74117
69.29197	2944.214	14.94531
69.34608	2963.3	10.56396
69.40018	2977.492	14.28246
69.45429	2997.582	17.72672
69.5084	3012.718	16.73207
69.56251	3034.565	15.98562
69.61661	3056.956	21.18814
69.67072	3080.68	23.11935
69.72482	3094.229	24.00489
69.77893	3118.838	22.0942
69.83304	3135.976	17.03852
69.88715	3158.237	15.68365
69.94125	3175.655	17.86019
69.99536	3203.748	21.62166
70.04947	3215.18	20.80253
70.10358	3248.584	22.63936
70.15768	3266.729	21.56884
70.21178	3295.237	23.06847
70.26589	3315.485	11.80987
70.32	3349.671	20.46525
70.37411	3365.401	20.72364
70.42822	3397.561	24.62506
70.48232	3414.551	25.34544
70.53643	3453.104	21.55419
70.59054	3472.68	23.52968
70.64465	3511.076	22.44741
70.69875	3534.821	22.37718
70.75286	3574.04	24.60779
70.80696	3597.502	20.95021
70.86107	3627.621	21.0002
70.91518	3654.176	21.73079
70.96928	3689.884	22.78449
71.02339	3718.722	23.84655
71.0775	3750.701	23.63259
71.13161	3784.785	23.28349
71.18571	3819.269	22.7955
71.23982	3853.159	23.88596
71.29393	3881.896	25.65779
71.34804	3915.978	24.5955
71.40215	3955.306	24.70827
71.45625	3998.232	26.57159
71.51035	4025.945	21.92928
71.56446	4068.178	19.79544
71.61857	4102.372	29.26631
71.67268	4142.5	25.87449
71.72678	4169.99	29.95293
71.78089	4222.731	26.67101
71.835	4253.331	21.40695
71.88911	4303.412	21.20987
71.94321	4334.108	25.39027
71.99732	4383.542	27.70253
72.05142	4410.217	26.35122
72.10553	4460.026	34.0488
72.15964	4498.304	26.38467
72.21375	4545.373	26.81851
72.26785	4578.506	39.91468
72.32196	4629.582	36.39512
72.37607	4655.427	33.38129
72.43018	4699.145	29.27853
72.48428	4728.094	31.19913
72.53839	4772.083	31.82467
72.5925	4802.934	28.20262
72.64661	4840.019	28.28128
72.70071	4870.031	30.04465
72.75481	4901.767	28.93544
72.80892	4927.952	28.6924
72.86303	4960.933	31.31423
72.91714	4990.696	26.01101
72.97124	5010.2	24.97099
73.02535	5036.273	30.94457
73.07946	5060.772	30.28847
73.13357	5090.007	34.72354
73.18768	5102.12	37.36121
73.24178	5133.563	39.54717
73.29588	5144.658	35.79107
73.34999	5170.381	35.36622
73.4041	5185.116	37.93481
73.45821	5212.925	39.4641
73.51231	5219.027	31.67276
73.56642	5247.181	35.84093
73.62053	5241.231	28.08766
73.67464	5268.271	24.9046
73.72874	5266.651	32.18002
73.78285	5296.459	32.76483
73.83696	5292.241	32.5029
73.89107	5313.504	31.6508
73.94517	5312.479	26.03395
73.99928	5331.753	34.40738
74.05338	5318.985	30.91042
74.10749	5343.545	33.96534
74.1616	5339.416	26.87166
74.21571	5363.701	33.72408
74.26981	5358.522	31.59282
74.32392	5380.444	40.61058
74.37803	5370.746	34.55466
74.43214	5400.144	34.03526
74.48624	5394.644	36.86581
74.54034	5407.156	29.36357
74.59445	5403.984	32.25922
74.64856	5423.485	34.1344
74.70267	5421.092	31.18033
74.75677	5427.146	39.11414
74.81088	5437.07	40.24687
74.86499	5447.847	37.20057
74.9191	5448.604	36.33011
74.97321	5454.553	35.73061
75.02731	5466.146	36.49892
75.08142	5461.017	35.76043
75.13553	5475.229	36.64869
75.18963	5475.423	37.09647
75.24374	5485.596	34.80417
75.29784	5482.303	30.81021
75.35195	5495.048	33.70606
75.40606	5485.917	34.47559
75.46017	5496.616	34.1753
75.51427	5492.159	37.95105
75.56838	5517.721	28.06422
75.62249	5505.694	40.70774
75.6766	5523.76	35.83739
75.73071	5507.236	38.1475
75.78481	5523.973	27.80199
75.83891	5516.33	41.98904
75.89302	5536.76	35.57294
75.94713	5526.895	36.30659
76.00124	5543.12	37.42973
76.05534	5527.801	37.20378
76.10945	5544.258	33.50723
76.16356	5543.104	33.12168
76.21767	5554.375	38.95311
76.27177	5544.12	28.35085
76.32588	5560.212	32.16632
76.37999	5550.479	31.89845
76.43409	5561.708	30.0673
76.4882	5556.951	33.44587
76.5423	5568.5	38.01507
76.59641	5570.234	38.27968
76.65052	5572.704	38.65783
76.70463	5575.955	38.48819
76.75874	5578.736	36.7546
76.81284	5587.949	38.92026
76.86695	5581.991	39.48477
76.92106	5588.805	38.52634
76.97517	5587.266	38.31108
77.02927	5595.444	35.23262
77.08337	5587.042	47.3335
77.13748	5601.473	43.41846
77.19159	5589.729	42.80932
77.2457	5600.109	44.2744
77.2998	5596.74	43.90089
77.35391	5606.578	44.42538
77.40802	5602.108	38.47068
77.46213	5615.479	33.38075
77.51624	5598.233	37.84635
77.57034	5613.858	43.81266
77.62445	5613.698	32.43847
77.67855	5623.703	39.13783
77.73266	5604.163	34.29662
77.78677	5622.938	38.99902
77.84087	5608.589	39.73058
77.89498	5621.875	45.12313
77.94909	5614.78	44.9697
78.0032	5620.469	43.73439
78.0573	5608.242	41.54792
78.11141	5620.539	46.58908
78.16552	5612.741	42.15065
78.21963	5625.215	42.55672
78.27373	5614.328	40.69863
78.32784	5624.78	43.27797
78.38194	5620.104	44.18621
78.43605	5625.468	41.17491
78.49016	5618.933	40.9094
78.54427	5616.193	41.67474
78.59837	5617.815	42.87391
78.65248	5620.951	43.85731
78.70659	5627.836	46.55818
78.7607	5624.104	49.5404
78.8148	5621.832	47.9254
78.86891	5615.707	50.40327
78.92301	5622.608	53.9388
78.97712	5615.197	50.73108
79.03123	5620.415	58.70825
79.08533	5612.725	56.1753
79.13944	5624.647	61.82473
79.19355	5607.196	56.94381
79.24766	5616.129	56.0507
79.30177	5603.278	58.61728
79.35587	5619.383	66.98125
79.40998	5602.581	55.30971
79.46409	5622.659	50.97543
79.51819	5615.844	54.725
79.5723	5632.553	44.43038
79.6264	5608.476	54.76384
79.68051	5616.246	58.21988
79.73462	5604.429	61.0292
79.78873	5622.826	64.31626
79.84283	5605.69	54.37725
79.89694	5624.248	61.80524
79.95105	5603.143	68.50895
80.00516	5625.131	65.95463
80.05927	5605.965	54.71375
80.11337	5628.448	59.57402
80.16747	5607.389	59.22649
80.22158	5629.81	64.71024
80.27569	5618.63	60.42758
80.3298	5637.851	62.01729
80.3839	5631.957	63.98562
80.43801	5637.785	56.2897
80.49212	5628.986	54.06594
80.54623	5632.829	55.94096
80.60033	5633.76	60.40679
80.65444	5645.5	63.11464
80.70855	5635.946	68.36009
80.76265	5645.375	65.06619
80.81676	5633.571	64.51895
80.87086	5640.729	61.32913
80.92497	5632.235	65.66635
80.97908	5643.452	67.69925
81.03319	5638.987	61.85457
81.0873	5646.127	59.75401
81.1414	5646.542	62.90599
81.19551	5653.296	61.95034
81.24962	5643.659	54.30529
81.30373	5650.428	59.58752
81.35783	5649.047	65.2108
81.41193	5660.966	65.83977
81.46604	5662.142	66.62983
81.52015	5661.416	65.49327
81.57426	5664.748	65.5433
81.62836	5659.627	62.05148
81.68247	5667.532	61.68807
81.73658	5669.356	68.08649
81.79069	5675.793	66.54178
81.8448	5674.816	65.69547
81.8989	5682.164	66.85443
81.95301	5675.512	64.19067
82.00711	5681.198	66.06682
82.06122	5671.751	67.39452
82.11533	5679.828	62.9501
82.16943	5665.471	63.78739
82.22354	5675.721	68.3508
82.27765	5671.624	62.99806
82.33176	5682.229	67.58135
82.38586	5672.955	74.97421
82.43997	5690.829	71.51012
82.49408	5683.696	72.36686
82.54819	5695.521	70.39058
82.60229	5684.764	61.14994
82.65639	5700.265	66.87613
82.7105	5687.479	63.56519
82.76461	5708.58	68.52166
82.81872	5688.861	66.28456
82.87283	5707.764	66.91004
82.92693	5693.17	61.03337
82.98104	5712.061	61.08757
83.03515	5695.676	64.70136
83.08926	5713.856	63.55745
83.14336	5695.175	65.1092
83.19747	5717.35	67.33553
83.25157	5693.081	67.57718
83.30568	5715.3	65.84093
83.35979	5695.94	64.07594
83.41389	5723.139	63.60984
83.468	5697.168	63.72468
83.52211	5719.524	59.55123
83.57622	5691.503	63.11721
83.63033	5709.213	60.44695
83.68443	5701.737	65.73077
83.73854	5720.056	67.09558
83.79265	5705.755	69.34697
83.84676	5727.422	59.45258
83.90086	5701.902	72.36975
83.95496	5715.159	71.24556
84.00907	5707.813	69.53006
84.06318	5716.36	75.03837
84.11729	5696.909	63.63102
84.17139	5717.656	73.07031
84.2255	5700.971	58.59934
84.27961	5723.053	66.53826
84.33372	5700.07	60.43817
84.38783	5717.873	56.99689
84.44193	5693.576	65.46158
84.49603	5714.87	72.6745
84.55014	5699.64	66.14256
84.60425	5715.9	64.7712
84.65836	5689.835	73.14098
84.71246	5711.592	67.52522
84.76657	5694.452	67.93616
84.82068	5704.205	67.51044
84.87479	5694.132	68.49505
84.92889	5705.617	68.57774
84.983	5695.956	67.81446
85.03711	5707.014	70.00572
85.09122	5690.049	68.33737
85.14532	5695.89	67.30451
85.19942	5679.745	67.83479
85.25353	5687.306	73.03825
85.30764	5680.457	72.21247
85.36175	5678.834	72.44567
85.41586	5675.866	79.25304
85.46996	5681.256	76.7365
85.52407	5674.267	74.31547
85.57818	5670.718	75.09053
85.63229	5666.895	73.62378
85.68639	5667.107	69.31484
85.74049	5662.383	72.93499
85.7946	5664.047	74.26977
85.84871	5662.383	67.77927
85.90282	5653.146	66.17535
85.95692	5648.775	69.15015
86.01103	5646.314	72.00667
86.06514	5648.682	68.82529
86.11925	5643.735	74.17115
86.17336	5644.338	78.29616
86.22746	5630.743	70.90238
86.28157	5632.948	70.24213
86.33568	5620.907	72.82656
86.38978	5625.751	73.43465
86.44389	5614.244	69.65563
86.49799	5624.04	67.2664
86.5521	5603.392	70.10941
86.60621	5602.508	67.27753
86.66032	5593.021	69.06494
86.71442	5605.883	67.47178
86.76853	5584.968	65.42031
86.82264	5601.559	72.48547
86.87675	5575.878	65.19569
86.93085	5589.897	70.98558
86.98495	5568.519	72.46271
87.03906	5584.56	63.33293
87.09317	5558.226	65.90758
87.14728	5565.559	67.54329
87.20139	5547.739	74.72102
87.25549	5556.401	68.94035
87.3096	5538.623	72.44348
87.36371	5555.885	64.33931
87.41782	5526.753	69.98222
87.47192	5547.868	75.45469
87.52603	5514.54	66.45532
87.58014	5526.795	72.73662
87.63424	5505.991	69.44385
87.68835	5521.442	62.18699
87.74245	5497.26	63.54591
87.79656	5510.916	65.40208
87.85067	5482.437	69.91064
87.90478	5495.962	70.85083
87.95889	5483.045	74.66865
88.01299	5491.731	63.84672
88.0671	5461.398	69.35027
88.12121	5477.749	66.32192
88.17532	5450.233	56.36807
88.22942	5469.881	68.82255
88.28352	5434.601	60.30179
88.33763	5456.047	62.02754
88.39174	5428.902	62.15732
88.44585	5447.287	64.09087
88.49995	5426.4	66.62996
88.55406	5431.868	58.94617
88.60817	5409.557	59.69899
88.66228	5426.125	61.80343
88.71638	5397.614	67.25356
88.77049	5412.999	64.70431
88.8246	5382.202	54.47827
88.8787	5403.006	63.10911
88.93281	5374.577	55.42825
88.98692	5390.122	56.01349
89.04102	5368.476	59.57257
89.09513	5378.202	56.98149
89.14924	5355.386	55.58816
89.20335	5362.405	59.55705
89.25745	5353.335	65.07767
89.31156	5358.295	67.33515
89.36567	5341.604	65.97162
89.41978	5340.592	70.34355
89.47388	5327.732	64.86658
89.52798	5327.718	60.27843
89.58209	5319.557	62.08105
89.6362	5318.107	64.97027
89.69031	5309.947	62.8214
89.74442	5311.779	63.3644
89.79852	5300.098	59.30529
89.85263	5298.252	55.79155
89.90674	5293.216	61.64488
89.96085	5282.069	64.4962
90.01495	5276.897	62.02514
90.06906	5272.426	61.93441
90.12316	5268.112	64.07593
90.17727	5262.777	61.69484
90.23138	5259.06	54.50746
90.28548	5246.25	57.21881
90.33959	5239.374	67.07397
90.3937	5227.447	68.35989
90.44781	5223.254	67.30791
90.50191	5215.217	66.10446
90.55602	5219.735	63.58434
90.61013	5206.1	59.95541
90.66424	5211.834	66.44312
90.71834	5192.368	67.96083
90.77245	5199.441	68.00933
90.82655	5180.027	62.31226
90.88066	5186.987	65.46035
90.93477	5173.056	66.44167
90.98888	5181.258	62.11145
91.04298	5160.3	62.94143
91.09709	5170.133	63.51075
91.1512	5142.077	62.1842
91.20531	5154.257	63.05974
91.25941	5131.097	58.10706
91.31352	5147.082	66.4178
91.36762	5121.518	60.62758
91.42173	5147.905	56.87927
91.47584	5107.712	59.30833
91.52995	5119.525	61.58459
91.58405	5099.021	58.07611
91.63816	5108.09	58.26299
91.69227	5085.273	65.67602
91.74638	5096.792	60.86774
91.80048	5062.523	68.408
91.85459	5077.475	63.99606
91.9087	5060.759	62.82214
91.9628	5075.899	59.63456
92.01691	5049.084	55.07486
92.07101	5061.244	54.80128
92.12512	5034.127	57.8181
92.17923	5052.166	60.2315
92.23334	5017.104	57.54592
92.28745	5028.465	59.20619
92.34155	5011.144	56.35059
92.39566	5025.855	61.43501
92.44977	4983.124	61.44883
92.50388	5006.226	59.28592
92.55798	4985.185	67.83245
92.61208	4999.966	61.7644
92.66619	4963.394	76.90396
92.7203	4987.776	66.34702
92.77441	4957.297	56.9438
92.82851	4970.306	55.57295
92.88262	4941.414	58.24837
92.93673	4953.45	64.70871
92.99084	4932.167	62.18771
93.04494	4944.761	55.87728
93.09905	4922.948	60.63607
93.15316	4932.497	63.26238
93.20726	4912.335	64.16172
93.26137	4915.152	63.31958
93.31548	4894.728	63.64709
93.36958	4902.994	66.81744
93.42369	4883.686	55.80301
93.4778	4886.441	52.53662
93.53191	4873.607	57.82795
93.58601	4883.153	61.28565
93.64012	4862.064	54.53068
93.69423	4859.424	53.31929
93.74834	4847.975	55.13272
93.80244	4852.758	60.83623
93.85654	4837.301	57.14041
93.91065	4837.317	56.10691
93.96476	4828.847	60.32599
94.01887	4829.759	63.37757
94.07298	4812.509	58.30625
94.12708	4816.646	57.13744
94.18119	4798.512	52.07992
94.2353	4805.379	55.37654
94.28941	4781.356	58.52262
94.34351	4793.897	60.74675
94.39762	4771.614	54.07935
94.45172	4781.484	60.19482
94.50583	4767.386	50.04945
94.55994	4746.022	50.96698
94.61404	4760.257	52.0915
94.66815	4753.658	57.79364
94.72226	4731.983	56.40075
94.77637	4727.168	52.08551
94.83047	4705.817	61.54042
94.88458	4711.967	54.22794
94.93869	4711.486	61.62432
94.9928	4719.37	58.95932
