T[Â°C]	350nm [counts / mm]	S.D.
19.99988	6877.819	
19.99994	6888.078	
20.00337	6909.964	
20.00527	6881.401	
20.01904	6887.219	
20.02318	6909.572	
20.04579	6883.703	
20.05114	6890.751	
20.08067	6883.393	
20.08754	6876.491	
20.12344	6882.48	
20.13187	6871.619	
20.17358	6883.729	
20.18287	6883.025	
20.23244	6877.541	
20.2436	6886.504	
20.29753	6868.578	
20.31122	6856.526	
20.37202	6869.449	
20.38549	6854.078	
20.45223	6850.388	
20.46708	6817.298	
20.53629	6847.097	
20.55095	6832.084	
20.6286	6839.207	
20.6454	6837.143	
20.72494	6840.926	
20.74239	6825.588	
20.82422	6826.221	
20.84142	6825.992	
20.92767	6807.629	
20.94636	6808.097	
21.03454	6799.719	
21.05293	6787.932	
21.1427	6775.449	
21.16217	6768.339	
21.25208	6772.674	
21.2707	6770.459	
21.36112	6759.495	
21.38061	6755.731	
21.47332	6754.476	
21.49247	6736.267	
21.58311	6739.674	
21.60161	6716.754	
21.6906	6742.059	
21.70999	6717.279	
21.79997	6713.096	
21.81877	6704.848	
21.91014	6708.005	
21.92872	6696.619	
22.01999	6703.862	
22.03908	6698.339	
22.12784	6681.467	
22.14884	6671.977	
22.23724	6666.967	
22.25664	6662.094	
22.34602	6659.473	
22.36538	6656.554	
22.45772	6659.409	
22.47663	6638.048	
22.56707	6646.614	
22.58597	6625.699	
22.67555	6622.537	
22.69469	6627.69	
22.78621	6603.938	
22.80542	6608.749	
22.89402	6589.393	
22.91299	6601.524	
23.00542	6600.92	
23.02556	6589.792	
23.11473	6591.407	
23.13357	6572.464	
23.22237	6576.375	
23.24112	6573.053	
23.3325	6573.272	
23.35136	6566.034	
23.44232	6550.857	
23.46148	6543.649	
23.55342	6547.224	
23.57233	6535.855	
23.6604	6545.52	
23.67936	6527.424	
23.77169	6526.928	
23.79031	6525.729	
23.87918	6522.28	
23.89791	6514.603	
23.98796	6504.791	
24.0074	6515.525	
24.0994	6502.479	
24.11821	6482.794	
24.2074	6491.779	
24.22623	6486.07	
24.31805	6487.358	
24.33675	6475.883	
24.42833	6471.65	
24.44723	6466.277	
24.53741	6463.408	
24.55606	6443.673	
24.64659	6442.822	
24.66604	6436.326	
24.75575	6433.812	
24.77563	6430.582	
24.86612	6423.979	
24.88472	6417.83	
24.97539	6398.801	
24.9945	6406.436	
25.08422	6411.434	
25.10352	6407.544	
25.19571	6394.586	
25.2143	6387.444	
25.30241	6378.527	
25.32253	6375.892	
25.4133	6372.683	
25.43282	6364.151	
25.52473	6360.518	
25.5439	6342.714	
25.63261	6350.283	
25.65129	6343.964	
25.74172	6328.754	
25.76082	6323.388	
25.85152	6330.546	
25.87116	6331.923	
25.96038	6324.981	
25.97923	6314.671	
26.07033	6302.874	
26.08957	6295.165	
26.17884	6304.936	
26.19785	6306.163	
26.28886	6288.656	
26.30844	6279.593	
26.39891	6256.657	
26.41717	6278.343	
26.5084	6261.92	
26.52734	6259.674	
26.61889	6244.469	
26.63756	6242.396	
26.72662	6228.415	
26.74497	6244.937	
26.83459	6237.18	
26.85421	6238.732	
26.94799	6239.181	
26.96704	6222.517	
27.05526	6218.636	
27.07427	6214.577	
27.16406	6209.784	
27.18295	6212.953	
27.27637	6196.84	
27.2954	6191.53	
27.38272	6184.965	
27.40468	6178.381	
27.49365	6180.218	
27.51278	6171.682	
27.60326	6152.013	
27.62245	6157.153	
27.71301	6152.111	
27.7324	6149.469	
27.82157	6150.824	
27.84061	6144.299	
27.93261	6131.103	
27.95162	6137.631	
28.04114	6145.098	
28.06009	6129.669	
28.15372	6115.382	
28.17307	6102.456	
28.26188	6106.956	
28.28012	6110.662	
28.36929	6086.88	
28.38858	6095.874	
28.48031	6084.61	
28.49942	6074.759	
28.58908	6078.591	
28.60754	6070.558	
28.69823	6070.746	
28.71718	6064.156	
28.8082	6045.856	
28.82681	6047.461	
28.91642	6051.088	
28.93537	6047.061	
29.02616	6025.402	
29.04558	6047.602	
29.13711	6030.444	
29.15575	6023.392	
29.2451	6013.454	
29.26426	6016.832	
29.35416	6006.312	
29.37324	6004.702	
29.46442	5996.619	
29.48332	5990.387	
29.57396	5980.106	
29.59313	5983.738	
29.68349	5983.132	
29.70226	5963.547	
29.79131	5974.138	
29.81021	5967.332	
29.90117	5939.148	
29.92006	5946.239	
30.01149	5944.688	
30.03024	5939.83	
30.1199	5928.806	
30.13859	5930.274	
30.23016	5912.504	
30.24919	5910.521	
30.33892	5914.047	
30.35775	5906.886	
30.44795	5909.574	
30.46717	5908.457	
30.55803	5893.468	
30.57712	5895.517	
30.66804	5887.035	
30.68711	5883.696	
30.77762	5878.136	
30.7966	5866.439	
30.88691	5849.047	
30.90585	5858.753	
30.99759	5846.735	
31.017	5843.023	
31.10525	5847.217	
31.12451	5853.859	
31.21523	5839.895	
31.23407	5839.281	
31.32447	5817.899	
31.34311	5819.149	
31.43375	5824.674	
31.45238	5815.113	
31.54263	5805.233	
31.56107	5805.621	
31.65305	5811.42	
31.6721	5809.15	
31.76241	5783.093	
31.78165	5788.983	
31.87241	5786.743	
31.89143	5777.803	
31.98232	5749.122	
32.00103	5762.099	
32.08992	5749.33	
32.10968	5754.949	
32.20098	5742.631	
32.21963	5747.403	
32.31007	5734.221	
32.32882	5738.5	
32.41939	5728.5	
32.43918	5728.708	
32.52842	5711.508	
32.54747	5709.889	
32.63821	5702.591	
32.65688	5692.059	
32.74718	5688.977	
32.76612	5693.611	
32.8574	5681.545	
32.87736	5663.127	
32.96755	5672.892	
32.98745	5670.399	
33.07586	5657.38	
33.09454	5666.733	
33.18551	5652.645	
33.20505	5650.849	
33.29652	5632	
33.31536	5652.862	
33.40434	5629.362	
33.42299	5648.247	
33.51405	5618.682	
33.53284	5634.303	
33.62414	5626.089	
33.64317	5620.577	
33.73351	5602.24	
33.75255	5604.065	
33.84108	5594.746	
33.86014	5602.143	
33.95264	5588.243	
33.97425	5576.885	
34.0624	5573.636	
34.08118	5569.018	
34.16956	5562.455	
34.18879	5554.669	
34.2798	5552.75	
34.29974	5561.711	
34.39169	5550.13	
34.41029	5562.349	
34.49918	5534.039	
34.51812	5536.964	
34.60811	5529.179	
34.62723	5520.455	
34.71622	5515.467	
34.73795	5524.271	
34.82858	5507.2	
34.84742	5509.553	
34.93666	5497.073	
34.95578	5497.345	
35.04503	5486.23	
35.0636	5483.837	
35.15448	5474.058	
35.17408	5479.989	
35.26485	5464.413	
35.28346	5475.2	
35.3736	5457.753	
35.39286	5477.819	
35.48474	5470.164	
35.50388	5463.605	
35.59402	5437.852	
35.61253	5444.11	
35.70268	5426.702	
35.72171	5438.512	
35.81162	5416.498	
35.83043	5428.308	
35.92275	5415.309	
35.94199	5401.205	
36.03014	5396.738	
36.04985	5383.571	
36.13997	5396.145	
36.15918	5395.619	
36.25134	5376.015	
36.27044	5395.683	
36.35836	5358.968	
36.37706	5369.673	
36.46909	5352.577	
36.48798	5372.191	
36.57892	5345.614	
36.59794	5356.356	
36.68845	5342.309	
36.70715	5350.412	
36.79751	5323.568	
36.81627	5348.266	
36.90696	5328.062	
36.92588	5321.001	
37.01674	5319.769	
37.03502	5316.156	
37.12566	5298.439	
37.14497	5309.559	
37.23696	5301.121	
37.25647	5286.058	
37.34455	5276.199	
37.36345	5285.26	
37.45388	5264.775	
37.47277	5275.223	
37.56326	5272.56	
37.58194	5273.031	
37.67386	5261.695	
37.69514	5262.494	
37.78335	5247.258	
37.8027	5262.665	
37.89338	5239.611	
37.91201	5251.464	
38.0015	5240.093	
38.02075	5235.557	
38.11084	5232.018	
38.12999	5227.419	
38.22023	5212.615	
38.23964	5217	
38.33008	5206.686	
38.34887	5212.094	
38.43883	5199.834	
38.45798	5191.973	
38.54866	5177.757	
38.56789	5190.458	
38.65797	5190.461	
38.67741	5194.375	
38.7676	5174.667	
38.7868	5176.673	
38.87622	5166.825	
38.89525	5177.763	
38.98644	5154.052	
39.00521	5174.058	
39.09632	5141.187	
39.1163	5137.325	
39.20428	5128.442	
39.22289	5126.403	
39.31392	5116.881	
39.33302	5134.758	
39.42529	5104.797	
39.44474	5128.853	
39.53487	5090.31	
39.55451	5106.452	
39.64259	5090.924	
39.66108	5099.89	
39.755	5081.889	
39.77386	5089.61	
39.86271	5073.137	
39.88202	5083.029	
39.97115	5057.588	
39.9901	5068.194	
40.08584	5062.223	
40.10609	5067.058	
40.19366	5046.259	
40.21246	5050.747	
40.30339	5027.216	
40.32227	5044.887	
40.41423	5017.65	
40.43342	5029.214	
40.5218	5016.778	
40.54073	5020.187	
40.63233	5009.308	
40.65121	5011.148	
40.7427	5001.748	
40.76152	5018.007	
40.85218	4989.825	
40.87138	5008.202	
40.96138	4971.917	
40.98114	4981.676	
41.07236	4957.547	
41.09143	4984.919	
41.17843	4964.227	
41.19944	4973.938	
41.28879	4949.213	
41.30833	4958.088	
41.39873	4938.723	
41.41773	4944.218	
41.50717	4930.929	
41.5259	4945.982	
41.61672	4925.235	
41.63712	4934.64	
41.7263	4920.531	
41.7458	4924.595	
41.83785	4904.847	
41.85669	4922.324	
41.94547	4907.765	
41.96532	4903.857	
42.05575	4896.137	
42.07458	4904.269	
42.16452	4885.842	
42.18519	4898.378	
42.27573	4885.872	
42.29427	4883.114	
42.38514	4859.973	
42.40372	4870.17	
42.49411	4856.237	
42.51339	4860.134	
42.60448	4858.936	
42.6235	4855.341	
42.71241	4830.937	
42.73153	4851.081	
42.82194	4818.817	
42.84341	4844.727	
42.9321	4829.15	
42.95131	4831.353	
43.04155	4800.624	
43.0607	4803.398	
43.15008	4795.974	
43.169	4801.367	
43.2603	4791.604	
43.27895	4810.305	
43.3695	4778.678	
43.38835	4785.481	
43.47844	4778.225	
43.49722	4782.977	
43.5888	4762.399	
43.60798	4771.764	
43.69879	4750.096	
43.71753	4758.6	
43.80715	4732.626	
43.82591	4758.859	
43.91592	4730.739	
43.93486	4743.136	
44.02683	4722.005	
44.04626	4730.638	
44.13564	4725.074	
44.15453	4726.68	
44.24369	4698.061	
44.26252	4718.706	
44.3541	4695.806	
44.37317	4718.279	
44.46391	4701.552	
44.48293	4704.831	
44.57505	4681.871	
44.59342	4693.119	
44.68095	4674.615	
44.70041	4682.317	
44.79287	4671.267	
44.8121	4666.921	
44.90277	4645.307	
44.92207	4660.271	
45.00991	4636.582	
45.0288	4641.933	
45.11853	4638.003	
45.13737	4642.036	
45.22828	4626.32	
45.24707	4635.163	
45.33844	4616.973	
45.35757	4636.756	
45.44807	4619.018	
45.46724	4629.208	
45.55739	4610.287	
45.57645	4608.086	
45.66696	4595.764	
45.6859	4605.973	
45.77561	4588.6	
45.79598	4600.313	
45.88714	4577.159	
45.90618	4601.215	
45.99696	4575.631	
46.01612	4582.164	
46.10658	4564.543	
46.12543	4574.124	
46.21417	4552.508	
46.23312	4569.564	
46.32349	4555.862	
46.34228	4568.312	
46.43344	4543.416	
46.45266	4562.844	
46.54298	4545.195	
46.56182	4553.576	
46.65232	4514.005	
46.67136	4535.019	
46.76299	4501.608	
46.78538	4517.831	
46.87155	4493.71	
46.89027	4495.243	
46.98186	4502.447	
47.00135	4497.393	
47.09101	4479.817	
47.1101	4499.862	
47.20111	4468.299	
47.21952	4484.005	
47.3089	4474.088	
47.32916	4480.965	
47.42078	4457.702	
47.43941	4473.686	
47.52833	4444.419	
47.54745	4460.727	
47.63822	4438.696	
47.6572	4456.004	
47.74657	4435.424	
47.76678	4450.212	
47.85752	4433.478	
47.87661	4425.853	
47.96827	4410.269	
47.98813	4422.762	
48.07827	4401.556	
48.09639	4418.173	
48.18583	4404.118	
48.20504	4404.16	
48.29427	4394.744	
48.31479	4393.856	
48.40655	4378.188	
48.42561	4397.68	
48.51516	4373.048	
48.53391	4389.744	
48.6273	4363.058	
48.64655	4373.352	
48.7383	4353.151	
48.75903	4353.865	
48.84663	4344.406	
48.86571	4346.013	
48.95658	4344.003	
48.97551	4347.295	
49.06628	4325.805	
49.08467	4350.4	
49.17529	4329.538	
49.1948	4332.487	
49.28511	4315.307	
49.30538	4322.796	
49.39375	4304.896	
49.41295	4321.546	
49.50282	4304.646	
49.52368	4326.965	
49.61464	4282.899	
49.6329	4302.923	
49.72262	4289.844	
49.74168	4295.213	
49.83274	4277.26	
49.85348	4285.488	
49.94099	4260.136	
49.95932	4268.007	
50.05123	4246.496	
50.07009	4266.782	
50.16038	4252.914	
50.17915	4263.908	
50.2684	4248.319	
50.28725	4257.603	
50.38049	4228.467	
50.39896	4248.951	
50.48758	4226.066	
50.50648	4245.833	
50.59864	4217.887	
50.61807	4237.568	
50.70943	4204.516	
50.72845	4233.771	
50.82021	4194.816	
50.8408	4208.53	
50.93095	4188.319	
50.95002	4211.087	
51.04061	4178.348	
51.05944	4193.534	
51.14852	4176.033	
51.1677	4189.666	
51.2581	4166.087	
51.27675	4183.652	
51.36698	4156.879	
51.3876	4179.695	
51.4767	4143.277	
51.49591	4166.657	
51.58588	4141.649	
51.60484	4160.029	
51.69725	4138.636	
51.71573	4146.375	
51.80402	4131.801	
51.82363	4129.978	
51.91504	4110.242	
51.93379	4126.785	
52.02494	4102.939	
52.04399	4129.495	
52.1351	4088.51	
52.15369	4118.638	
52.24295	4088.164	
52.26151	4110.925	
52.35373	4091.547	
52.37195	4096.764	
52.46049	4072.433	
52.47925	4092.262	
52.57117	4062.236	
52.59058	4084.898	
52.68029	4057.141	
52.69868	4065.987	
52.78821	4054.072	
52.80733	4053.468	
52.90003	4039.426	
52.91948	4047.982	
53.00896	4037.727	
53.02775	4043.224	
53.1189	4035.696	
53.13808	4039.925	
53.22694	4016.728	
53.24604	4037.496	
53.33676	4018.938	
53.35555	4038.075	
53.44733	4009.827	
53.46628	4027.692	
53.55672	3990.586	
53.57607	4019.675	
53.66422	4000.627	
53.68324	4003.39	
53.77556	3990.306	
53.79409	3993.173	
53.88614	3975.41	
53.90516	3983.96	
53.99449	3957.974	
54.01417	3981.714	
54.10461	3959.762	
54.12315	3967.865	
54.21418	3949.856	
54.23309	3969.459	
54.32408	3935.725	
54.34346	3961.237	
54.43189	3943.49	
54.45121	3951.079	
54.54319	3927.37	
54.56192	3944.458	
54.65141	3911.941	
54.67041	3926.855	
54.76148	3911.989	
54.78037	3914.29	
54.87005	3904.406	
54.88876	3914.047	
54.98111	3888.413	
55.00038	3911.306	
55.09043	3892.84	
55.10978	3902.663	
55.20017	3877.78	
55.21972	3897.348	
55.31083	3868.666	
55.32949	3885.497	
55.41734	3871.381	
55.43628	3889.367	
55.52721	3861.817	
55.54595	3872.71	
55.63813	3847.45	
55.65688	3857.316	
55.74887	3838.708	
55.76822	3857.987	
55.85739	3836.875	
55.87596	3847.044	
55.96622	3813.112	
55.98536	3843.365	
56.07586	3816.694	
56.09497	3835.471	
56.18506	3813.349	
56.20403	3818.913	
56.29585	3808.465	
56.31566	3817.129	
56.40424	3804.651	
56.4233	3805.881	
56.51547	3784.525	
56.53537	3800.862	
56.62411	3780.329	
56.64259	3795.278	
56.73429	3762.671	
56.75317	3783.766	
56.84348	3760.355	
56.86296	3772.925	
56.95425	3745.872	
56.97303	3755.161	
57.06389	3752.163	
57.08272	3771.373	
57.17162	3736.514	
57.19096	3762.062	
57.28371	3739.188	
57.30183	3746.768	
57.39187	3730.655	
57.4113	3745.506	
57.50056	3729.536	
57.51944	3736	
57.60972	3704.565	
57.62873	3733.624	
57.72161	3708.028	
57.74072	3724.609	
57.83068	3699.244	
57.84923	3715.328	
57.94189	3688.602	
57.96106	3707.934	
58.05563	3674.272	
58.07516	3697.407	
58.16615	3678.291	
58.18477	3698.145	
58.28126	3669.335	
58.30046	3695.306	
58.38796	3670.353	
58.40676	3676.861	
58.50248	3652.096	
58.52121	3669.605	
58.61237	3641.164	
58.631	3661.827	
58.72168	3635.265	
58.74038	3654.448	
58.83038	3630.295	
58.84897	3644.069	
58.93987	3621.414	
58.95863	3638.641	
59.0503	3619.78	
59.06955	3635.611	
59.1581	3604.07	
59.17736	3626.178	
59.2704	3603.018	
59.29053	3624.085	
59.37851	3596.783	
59.39982	3610.863	
59.48864	3593.03	
59.50921	3595.655	
59.6031	3582.269	
59.62469	3606.327	
59.71143	3570.494	
59.73328	3597.733	
59.82493	3564.34	
59.84581	3584.848	
59.93467	3560.549	
59.95599	3576.245	
60.04757	3550.806	
60.0689	3572.688	
60.15943	3546.374	
60.18005	3563.381	
60.26897	3542.45	
60.2899	3560.855	
60.38025	3528.648	
60.40184	3559.232	
60.4928	3521.061	
60.51502	3529.876	
60.60735	3510.911	
60.62668	3526.282	
60.71469	3495.188	
60.73641	3539.238	
60.82781	3488.837	
60.84966	3517.583	
60.94138	3490.172	
60.96124	3505.552	
61.05365	3482.84	
61.07639	3498.111	
61.16519	3486.69	
61.1877	3504.64	
61.27885	3475.083	
61.2993	3498.375	
61.38838	3467.823	
61.40977	3491.585	
61.50036	3455.691	
61.52059	3476.713	
61.61164	3454.439	
61.63093	3467.635	
61.72171	3447.921	
61.74038	3465.075	
61.82958	3436.229	
61.84885	3456.84	
61.93996	3436.807	
61.95863	3455.268	
62.05144	3429.011	
62.06986	3440.514	
62.15904	3432.082	
62.17773	3452.071	
62.2686	3407.419	
62.28799	3433.361	
62.37877	3424.294	
62.39778	3448.128	
62.48734	3420.68	
62.50836	3430.94	
62.59548	3402.832	
62.61489	3419.431	
62.70782	3395.829	
62.72683	3426.133	
62.81557	3386.342	
62.83451	3403.944	
62.92495	3379.265	
62.94379	3409.203	
63.03577	3383.358	
63.05445	3393.556	
63.14477	3366.332	
63.16387	3398.297	
63.25405	3367.366	
63.27586	3381.862	
63.3676	3357.875	
63.38627	3378.262	
63.47812	3357.143	
63.4971	3373.406	
63.5904	3349.069	
63.60945	3367.336	
63.69933	3353.857	
63.71848	3366.871	
63.80878	3344.602	
63.82785	3361.145	
63.91956	3331.381	
63.93813	3351.192	
64.02847	3334.959	
64.04736	3363.185	
64.13898	3331.42	
64.15799	3360.618	
64.24846	3327.901	
64.26801	3342.193	
64.35697	3322.21	
64.37603	3336.46	
64.46648	3322.772	
64.48535	3338.824	
64.5762	3311.952	
64.59513	3339.701	
64.68732	3304.419	
64.70638	3332.523	
64.79476	3299.429	
64.81351	3318.888	
64.90565	3296.862	
64.92771	3319.169	
65.01855	3302.574	
65.03706	3319.776	
65.12737	3301.155	
65.14643	3318.543	
65.23844	3303.896	
65.25764	3310.436	
65.34803	3298.256	
65.36661	3320.549	
65.45728	3296.285	
65.47612	3321.619	
65.56686	3303.188	
65.58615	3324.865	
65.67552	3298.273	
65.69421	3314.271	
65.78955	3298.751	
65.80885	3313.828	
65.89868	3299.801	
65.91772	3323.243	
66.00907	3290.628	
66.02851	3321.496	
66.1198	3300.35	
66.13824	3326.092	
66.22675	3300.468	
66.24549	3326.223	
66.33842	3304.063	
66.35826	3318.327	
66.44689	3304.55	
66.46549	3336.207	
66.55417	3315.353	
66.57297	3337.241	
66.66518	3326.623	
66.68477	3333.577	
66.77554	3340.015	
66.79462	3357.071	
66.88592	3344.124	
66.90453	3365.932	
66.99746	3339.727	
67.01727	3376.026	
67.10502	3354.109	
67.12381	3364.992	
67.21494	3356.524	
67.23389	3381.135	
67.32431	3370.178	
67.34421	3385.727	
67.43407	3376.174	
67.45309	3402.105	
67.54386	3382.702	
67.56316	3414.435	
67.65134	3407.963	
67.67053	3431.509	
67.7622	3415.898	
67.7811	3440.764	
67.87228	3425.252	
67.89113	3455.298	
67.98009	3451.853	
67.99942	3472.295	
68.09153	3470.39	
68.11082	3494.338	
68.19872	3483.314	
68.21806	3526.109	
68.30984	3515.471	
68.32874	3554.325	
68.41965	3530.699	
68.4385	3561.589	
68.52735	3564.873	
68.54687	3599.123	
68.63806	3596.645	
68.65781	3618.772	
68.74966	3615.863	
68.77175	3657.667	
68.86088	3642.847	
68.88216	3686.969	
68.97033	3682.714	
68.98949	3708.858	
69.08215	3728.085	
69.10142	3749.025	
69.18859	3756.054	
69.20749	3792.893	
69.29871	3793.672	
69.31741	3832.219	
69.40909	3839.1	
69.4294	3876.192	
69.51743	3894.57	
69.53656	3922.441	
69.62737	3924.449	
69.64549	3968.331	
69.73629	3967.556	
69.75609	4009.703	
69.84728	4032.259	
69.8662	4065.559	
69.95663	4077.869	
69.97547	4133.187	
70.06743	4144.849	
70.08707	4189.583	
70.1742	4202.993	
70.1933	4256.805	
70.28606	4274.75	
70.30496	4327.852	
70.39499	4348.582	
70.41663	4405.459	
70.50869	4429.46	
70.52808	4466.647	
70.61827	4505.306	
70.63743	4544.137	
70.728	4578.385	
70.74661	4623.916	
70.83514	4672.285	
70.85402	4729.732	
70.94659	4750.875	
70.96643	4802.491	
71.05608	4833.632	
71.07567	4899.318	
71.16634	4947.508	
71.18512	4987.415	
71.27573	5038.973	
71.29459	5087.451	
71.38521	5105.548	
71.40672	5185.616	
71.49655	5200.881	
71.51559	5259.03	
71.61124	5290.149	
71.63071	5351.358	
71.72143	5372.852	
71.74091	5438.637	
71.8306	5461.74	
71.84945	5520.921	
71.94361	5551.156	
71.96203	5607.802	
72.05445	5642.089	
72.07458	5699.41	
72.16315	5744.372	
72.18201	5818.483	
72.27274	5842.61	
72.29364	5908.323	
72.38124	5923.169	
72.40229	5980.719	
72.49157	6010.982	
72.51074	6075.044	
72.60619	6095.613	
72.62585	6161.069	
72.71613	6166.482	
72.73455	6228.429	
72.82246	6242.834	
72.84202	6312.004	
72.93437	6312.254	
72.95269	6384.45	
73.04395	6397.167	
73.0638	6450.1	
73.15446	6430.749	
73.17455	6502.296	
73.26178	6477.742	
73.27998	6531.956	
73.37173	6533.694	
73.39208	6585.414	
73.48308	6563.348	
73.50204	6622.915	
73.5952	6599.935	
73.61394	6667.016	
73.70616	6646.736	
73.7265	6707.034	
73.81503	6671.478	
73.83339	6736.068	
73.92292	6721.312	
73.94162	6767.317	
74.03408	6746.061	
74.05485	6805.511	
74.14448	6760.248	
74.16358	6819.157	
74.25321	6768.104	
74.27155	6820.362	
74.36282	6795.41	
74.38227	6871.297	
74.47789	6798.239	
74.49641	6866.404	
74.58523	6814.82	
74.60419	6884.844	
74.69604	6828.248	
74.71497	6881.714	
74.80511	6869.234	
74.82484	6914.457	
74.91544	6869.222	
74.93587	6935.631	
75.02393	6894.007	
75.04316	6942.879	
75.13589	6900.047	
75.15611	6959.826	
75.24474	6910.571	
75.26428	6973.206	
75.3542	6923.542	
75.37646	6993.176	
75.46854	6933.255	
75.48772	6977.433	
75.57758	6944.526	
75.59877	7007.79	
75.6871	6967.374	
75.7058	7008.028	
75.7945	6957.427	
75.81688	7017.792	
75.90887	6964.219	
75.92722	7026.652	
76.01732	6969.66	
76.03914	7042.761	
76.13082	6980.856	
76.14979	7032.036	
76.24088	6981.743	
76.26287	7026.824	
76.35404	6989.211	
76.37297	7061.428	
76.46367	6997.414	
76.48569	7070.182	
76.57817	7002.112	
76.59664	7061.5	
76.68558	7012.038	
76.70734	7063.413	
76.79577	7018.566	
76.81471	7068.853	
76.909	7003.318	
76.92812	7080.6	
77.01862	7018.458	
77.03765	7083.379	
77.13048	7015.399	
77.14906	7058.395	
77.23747	7029.588	
77.2571	7065.837	
77.35198	7012.876	
77.37081	7071.937	
77.46097	7011.159	
77.47991	7067.468	
77.57005	7026.835	
77.58833	7081.679	
77.67977	7021.409	
77.699	7089.626	
77.79362	7014.345	
77.81348	7054.482	
77.90308	7010.268	
77.9216	7086.875	
78.01579	7002.365	
78.03455	7064.835	
78.12663	7006.374	
78.14545	7085.672	
78.23902	7014.36	
78.25773	7080.903	
78.3494	7011.05	
78.36878	7080.311	
78.46082	6999.772	
78.48207	7050.113	
78.5688	7003.026	
78.58887	7084.011	
78.67756	6996.963	
78.69933	7061.095	
78.79164	6993.371	
78.81099	7048.025	
78.90085	6993.358	
78.92299	7055.327	
79.01568	7001.293	
79.03432	7056.926	
79.12357	6995.459	
79.1452	7047.909	
79.23801	6982.406	
79.25759	7038.772	
79.34766	6989.974	
79.36968	7035.43	
79.4596	6973.706	
79.47887	7031.024	
79.57078	6979.932	
79.59276	7035.49	
79.68285	6964.175	
79.70138	7052.393	
79.79146	6952.483	
79.81563	7023.063	
79.90638	6953.502	
79.92513	7021.747	
80.01591	6959.819	
80.03498	6996.978	
80.13057	6929.227	
80.14952	7002.421	
80.23959	6928.851	
80.25912	6993.356	
80.35065	6956.632	
80.37267	6988.393	
80.46244	6940.063	
80.48074	6998.609	
80.57147	6950.751	
80.59084	7006.125	
80.68721	6943.438	
80.70625	7015.739	
80.79499	6949.294	
80.81388	7010.358	
80.90266	6932.776	
80.9248	7020.369	
81.01571	6937.689	
81.0354	6998.314	
81.12773	6921.309	
81.14642	6994.319	
81.24037	6914.386	
81.25939	6997.999	
81.34925	6920.268	
81.36774	6975.758	
81.45823	6910.591	
81.48151	6994.511	
81.57249	6927.728	
81.59126	6988.322	
81.68321	6904.485	
81.70209	6973.322	
81.79073	6917.678	
81.81271	6978.373	
81.90374	6907.188	
81.92235	6970.492	
82.01573	6912.533	
82.03513	6970.399	
82.12485	6929.104	
82.1475	6977.496	
82.23768	6911.443	
82.25699	6972.214	
82.34752	6909.408	
82.36684	6984.648	
82.46011	6910.787	
82.47871	6971.758	
82.5723	6916.658	
82.59151	6961.667	
82.67794	6908.184	
82.69958	6971.849	
82.79171	6892.104	
82.81084	6962.511	
82.90248	6906.841	
82.92122	6972.764	
83.0117	6896.184	
83.03391	6964.969	
83.12388	6911.757	
83.14268	6964.322	
83.23382	6901.714	
83.25352	6969.79	
83.34741	6906.565	
83.36603	6983.397	
83.4587	6897.989	
83.47768	6965.87	
83.56768	6883.381	
83.58615	6948.8	
83.6742	6885.393	
83.6936	6953.1	
83.78681	6884.436	
83.80602	6953.052	
83.89564	6887.238	
83.91752	6967.174	
84.00896	6894.103	
84.02804	6960.818	
84.11791	6862.892	
84.13702	6955.24	
84.23323	6872.84	
84.25381	6940.387	
84.34068	6867.731	
84.35946	6949.449	
84.45009	6887.115	
84.47272	6941.394	
84.56438	6860.813	
84.58291	6942.873	
84.67449	6864.266	
84.69334	6922.583	
84.78744	6849.016	
84.80679	6922.077	
84.89719	6842.438	
84.91611	6909.396	
85.00569	6834.65	
85.02477	6915.985	
85.11607	6841.461	
85.13522	6907.039	
85.22733	6828.333	
85.24622	6901.927	
85.33382	6830.252	
85.35282	6897.89	
85.44476	6838.939	
85.46385	6901.378	
85.55412	6813.007	
85.573	6895.685	
85.66505	6793.237	
85.68365	6852.554	
85.77302	6782.104	
85.79226	6855.566	
85.88183	6766.115	
85.90129	6851.175	
85.99284	6766.157	
86.01163	6830.786	
86.10458	6756.743	
86.12335	6814.204	
86.21178	6738.311	
86.23101	6805.5	
86.32059	6717.551	
86.33965	6800.581	
86.43034	6720.872	
86.44894	6810.289	
86.54112	6719.999	
86.56017	6783.25	
86.65128	6695.254	
86.6703	6781.726	
86.76067	6680.864	
86.77965	6758.217	
86.87073	6665.712	
86.88975	6740.737	
86.98022	6656.73	
87.00076	6728.014	
87.09019	6646.501	
87.1097	6733.303	
87.20004	6632.046	
87.21882	6700.941	
87.30837	6623.047	
87.32748	6688.944	
87.41898	6603.741	
87.43809	6666.013	
87.52764	6587.63	
87.54708	6675.379	
87.63815	6583.24	
87.65681	6656.793	
87.74675	6562.485	
87.76537	6631.927	
87.85511	6545.524	
87.87442	6619.583	
87.96683	6535.965	
87.98573	6589.487	
88.07541	6519.436	
88.09458	6584.077	
88.18455	6502.158	
88.20366	6591.99	
88.29381	6504.373	
88.31301	6570.831	
88.4043	6478.768	
88.42281	6542.844	
88.51503	6454.158	
88.53368	6522.747	
88.62399	6428.435	
88.64323	6518.396	
88.7338	6434.691	
88.75247	6493.946	
88.84269	6396.711	
88.86172	6473.564	
88.95427	6382.54	
88.97322	6461.201	
89.06442	6380.311	
89.08298	6445.705	
89.16893	6347.304	
89.1883	6440.021	
89.28186	6346.651	
89.301	6421.675	
89.39275	6325.39	
89.41171	6403.303	
89.50079	6326.641	
89.5194	6392.165	
89.61076	6303.513	
89.62965	6360.831	
89.71846	6281.081	
89.73712	6350.472	
89.82911	6270.976	
89.84969	6334.249	
89.9391	6243.462	
89.95764	6323.464	
90.04695	6235.05	
90.06645	6312.903	
90.15721	6225.537	
90.17567	6294.43	
90.26836	6202.506	
90.28833	6275.106	
90.37631	6183.894	
90.39409	6249.727	
90.4851	6176.368	
90.50504	6235.241	
90.59624	6159.373	
90.61524	6220.048	
90.70582	6143.771	
90.72429	6205.02	
90.81419	6146.043	
90.83344	6202.605	
90.92506	6113.599	
90.94409	6198.405	
91.03625	6097.478	
91.05469	6151.759	
91.1447	6079.349	
91.16391	6134.715	
91.25257	6055.77	
91.27164	6127.083	
91.3621	6032.133	
91.38082	6124.68	
91.47167	6030.649	
91.49099	6104.984	
91.5813	6024.034	
91.59993	6083.587	
91.69094	6007	
91.71005	6052.858	
91.80389	5977.969	
91.82292	6033.454	
91.9111	5953.153	
91.92968	6022.193	
92.01958	5942.902	
92.03915	6025.214	
92.13019	5925.114	
92.1497	6015.341	
92.24066	5908.644	
92.25905	5996.471	
92.34888	5894.422	
92.36855	5968.914	
92.45892	5901.296	
92.47873	5960.977	
92.56963	5876.394	
92.58805	5938.268	
92.67774	5844.751	
92.69722	5913.919	
92.78776	5854.81	
92.80629	5899.422	
92.89658	5832.172	
92.91551	5897.746	
93.00607	5823.264	
93.02599	5886.845	
93.11694	5804.95	
93.13573	5877.414	
93.22604	5780.857	
93.24473	5855.492	
93.33614	5763.252	
93.35534	5836.898	
93.44527	5757.245	
93.46416	5823.265	
93.55428	5736.202	
93.57429	5803.534	
93.66476	5733.012	
93.68359	5791.881	
93.77495	5706.397	
93.79425	5771.823	
93.88236	5693.274	
93.90116	5766.771	
93.99083	5696.54	
94.00957	5742.22	
94.09725	5650.01	
94.11485	5738.641	
94.19839	5649.842	
94.21604	5727.6	
94.29925	5630.471	
94.31593	5698.292	
94.39295	5620.396	
94.40903	5681.176	
94.4824	5607.811	
94.49809	5675.903	
94.56783	5608.631	
94.58166	5651.673	
94.6462	5592.783	
94.65871	5659.932	
94.71671	5574.245	
94.72868	5643.712	
94.78219	5568.691	
94.79275	5629.164	
94.83884	5560.699	
94.84782	5634.534	
94.88728	5555.936	
94.89494	5644.965	
94.92908	5558.365	
94.93518	5623.269	
94.95964	5535.759	
94.96392	5608.551	
94.98438	5531.466	
94.98764	5603.8	
