T[Â°C]	350nm [counts / mm]	S.D.
19.99934	6925.184	
19.99952	6922.335	
20.00107	6917.244	
20.00741	6935.317	
20.01414	6923.371	
20.02828	6923.412	
20.03933	6918.426	
20.05776	6910.978	
20.07225	6894.526	
20.09566	6896.559	
20.11321	6897.402	
20.14224	6886.834	
20.16275	6911.421	
20.19466	6895.756	
20.21897	6891.02	
20.25701	6898.53	
20.2836	6900.314	
20.32648	6890.389	
20.35618	6890.208	
20.40257	6874.326	
20.43538	6873.668	
20.48593	6866.229	
20.5196	6850.375	
20.57047	6853.167	
20.6085	6852.257	
20.66638	6846.759	
20.70523	6852.911	
20.76406	6856.921	
20.80413	6842.618	
20.86328	6847.334	
20.90553	6842.75	
20.96987	6824.249	
21.01305	6827.687	
21.07628	6819.861	
21.12012	6834.619	
21.18501	6795.402	
21.22951	6805.009	
21.29354	6784.222	
21.3377	6795.207	
21.40414	6784.617	
21.44985	6770.732	
21.51579	6776.063	
21.56018	6775.827	
21.62392	6759.358	
21.6674	6754.72	
21.73345	6747.685	
21.77726	6737.64	
21.84201	6734.874	
21.88705	6737.362	
21.9516	6732.218	
21.99618	6721.362	
22.06258	6714.225	
22.10647	6714.297	
22.17074	6708.801	
22.21379	6701.234	
22.28	6688.039	
22.32408	6678.246	
22.3892	6673.624	
22.43416	6686.353	
22.50001	6674.983	
22.54459	6658.327	
22.60821	6666.232	
22.65185	6654.68	
22.7172	6645.956	
22.76204	6648.016	
22.82825	6641.028	
22.87151	6642.777	
22.93619	6641.367	
22.98134	6635.167	
23.04734	6637.353	
23.09106	6624.356	
23.15604	6605.802	
23.19941	6610.315	
23.26401	6588.858	
23.30949	6590.775	
23.37442	6573.648	
23.41898	6575.667	
23.48495	6574.488	
23.52985	6560.487	
23.59441	6550.411	
23.63743	6549.554	
23.7027	6539.688	
23.74793	6549.786	
23.8128	6540.736	
23.85607	6532.344	
23.92062	6537.872	
23.96447	6537.146	
24.03143	6521.457	
24.07663	6522.652	
24.14136	6519.002	
24.18505	6500.777	
24.24987	6491.036	
24.29471	6502.061	
24.35977	6489.791	
24.4045	6485.94	
24.47026	6480.088	
24.51457	6482.03	
24.57816	6481.253	
24.62254	6462.706	
24.68889	6476.404	
24.73257	6451.048	
24.79894	6451.047	
24.84327	6450.912	
24.90737	6431.501	
24.95153	6449.724	
25.0168	6431.529	
25.06063	6436.805	
25.12708	6421.662	
25.17224	6425.39	
25.23696	6407.821	
25.27998	6409.796	
25.34552	6403.306	
25.38986	6401.262	
25.45575	6374.646	
25.5008	6384.864	
25.56616	6373.697	
25.60949	6359.842	
25.67326	6368.389	
25.71759	6347.57	
25.7834	6346.467	
25.82825	6345.266	
25.8945	6335.085	
25.93807	6332.887	
26.00233	6330.087	
26.04682	6333.289	
26.11246	6309.398	
26.15619	6319.575	
26.22165	6312.523	
26.26623	6299.432	
26.33276	6295.646	
26.37708	6300.514	
26.43991	6277.073	
26.48632	6284.989	
26.55073	6275.639	
26.59544	6267.182	
26.66041	6272.878	
26.70391	6275.057	
26.76776	6271.284	
26.81139	6252.807	
26.87823	6247.018	
26.92389	6247.258	
26.98829	6241.28	
27.03142	6224.207	
27.09756	6229.903	
27.14127	6222.025	
27.20638	6221.541	
27.252	6211.381	
27.31762	6191.459	
27.36026	6195.971	
27.42603	6189.79	
27.46952	6178.272	
27.53548	6175.493	
27.57953	6186.594	
27.64562	6179.555	
27.68971	6159.988	
27.75581	6169.389	
27.79936	6158.63	
27.86495	6152.864	
27.91014	6163.911	
27.97486	6150.497	
28.01844	6137.523	
28.08309	6136.212	
28.12959	6133.207	
28.19621	6132.332	
28.23971	6117.907	
28.30251	6135.926	
28.34606	6119.561	
28.41184	6102.431	
28.45665	6103.682	
28.52244	6097.844	
28.56623	6096.04	
28.63048	6075.877	
28.67491	6085.996	
28.74016	6065.601	
28.78461	6066.842	
28.84942	6061.24	
28.8932	6068.726	
28.95909	6051.275	
29.00328	6047.384	
29.06943	6044.586	
29.11414	6041.95	
29.17765	6036.856	
29.2213	6041.812	
29.28732	6035.81	
29.33136	6031.362	
29.39696	6020.792	
29.44135	6008.892	
29.50583	5997.841	
29.55012	6002.108	
29.61616	6000.131	
29.66055	5994.241	
29.72523	5992.332	
29.76858	5987.359	
29.83428	5970.817	
29.87869	5963.341	
29.94374	5955.654	
29.98853	5949.795	
30.05308	5950.626	
30.09716	5946.201	
30.16144	5937.167	
30.20617	5950.462	
30.27177	5932.371	
30.31586	5939.264	
30.38067	5918.463	
30.42487	5907.303	
30.49103	5916.9	
30.5354	5903.327	
30.60046	5896.513	
30.64487	5904.803	
30.71054	5885.706	
30.75487	5878.468	
30.82025	5887.164	
30.86463	5864.535	
30.92979	5879.766	
30.97487	5871.146	
31.03837	5849.923	
31.08193	5866.097	
31.1482	5845.26	
31.19263	5858.317	
31.2575	5846.089	
31.30164	5841.857	
31.36647	5834.086	
31.41073	5822.504	
31.47559	5823.193	
31.51992	5815.659	
31.58403	5814.162	
31.6291	5798.421	
31.69539	5807.527	
31.7395	5788.062	
31.80511	5794.099	
31.84941	5788.944	
31.91366	5798.643	
31.95903	5780.231	
32.0234	5779.578	
32.06766	5790.339	
32.13274	5756.474	
32.17749	5767.561	
32.24172	5748.324	
32.28698	5757.537	
32.35153	5752.94	
32.39576	5752.889	
32.46196	5730.042	
32.50569	5736.68	
32.5713	5723.174	
32.6155	5706.221	
32.67984	5706.292	
32.72407	5713.521	
32.78933	5686.251	
32.83419	5689.384	
32.89953	5696.478	
32.9436	5675.315	
33.00946	5689.974	
33.05268	5677.344	
33.11707	5659.761	
33.1615	5667.796	
33.22885	5666.305	
33.27337	5652.313	
33.3383	5653.74	
33.38175	5635.307	
33.44665	5653.32	
33.49179	5643.403	
33.55577	5630.554	
33.60036	5625.47	
33.66592	5627.903	
33.7116	5613.075	
33.77428	5611.831	
33.81754	5610.842	
33.8839	5598.829	
33.92907	5594.598	
33.99582	5585.27	
34.03904	5592.456	
34.10312	5584.363	
34.14643	5572.582	
34.21198	5563.256	
34.25645	5570.089	
34.32302	5567.995	
34.36808	5553.104	
34.43221	5544.573	
34.47629	5547.19	
34.5415	5543.502	
34.58543	5531.536	
34.65121	5523.876	
34.69479	5517.667	
34.76046	5509.831	
34.80474	5530.857	
34.86914	5510.159	
34.91272	5497.273	
34.97861	5491.729	
35.02233	5491.625	
35.08628	5491.93	
35.13067	5481.472	
35.19751	5487.041	
35.24227	5475.498	
35.30625	5472.377	
35.35041	5465.057	
35.41672	5472.417	
35.46158	5465.382	
35.52686	5463.489	
35.57076	5440.923	
35.6352	5446.545	
35.67923	5456.095	
35.74479	5439.058	
35.78896	5432.022	
35.85367	5426.123	
35.89877	5425.57	
35.96505	5419.09	
36.0081	5409.783	
36.0727	5403.957	
36.11673	5398.432	
36.18227	5392.232	
36.22742	5392.787	
36.29328	5378.185	
36.33648	5371.563	
36.40074	5377.542	
36.44569	5364.677	
36.5107	5361.012	
36.55556	5365.802	
36.62112	5352.56	
36.66544	5352.604	
36.72984	5358.005	
36.77411	5343.513	
36.83936	5340.436	
36.88366	5324.024	
36.94883	5329.168	
36.99404	5323.048	
37.05751	5312.936	
37.10192	5312.207	
37.16908	5311.057	
37.21428	5298.948	
37.27935	5289.042	
37.32251	5288.268	
37.38689	5298.082	
37.43106	5281.932	
37.4961	5282.074	
37.54055	5273.456	
37.60553	5261.761	
37.65041	5274.207	
37.71659	5264.273	
37.75969	5247.266	
37.8257	5255.27	
37.87027	5247.642	
37.93377	5229.589	
37.97762	5230.544	
38.04332	5232.983	
38.08733	5228.229	
38.15262	5228.797	
38.19711	5228.768	
38.2632	5216.433	
38.30737	5214.727	
38.37205	5201.44	
38.41598	5198.433	
38.48129	5195.758	
38.52571	5189.665	
38.59117	5179.53	
38.6353	5186.169	
38.70084	5177.635	
38.74476	5178.115	
38.80837	5169.116	
38.85302	5155.282	
38.91848	5161.037	
38.96313	5160.902	
39.02779	5156.453	
39.07217	5131.797	
39.139	5143.791	
39.18226	5137.003	
39.2463	5134.065	
39.29074	5137.886	
39.35654	5123.112	
39.40256	5118.477	
39.46675	5113.084	
39.51078	5101.825	
39.57786	5095.536	
39.62087	5098.709	
39.68452	5097.747	
39.73068	5093.996	
39.79573	5101.426	
39.83911	5089.761	
39.90499	5075.393	
39.94853	5073.158	
40.01381	5067.836	
40.06178	5057.18	
40.12833	5056.139	
40.17099	5056.387	
40.23573	5053.908	
40.28071	5043.204	
40.34562	5036.24	
40.39151	5025.632	
40.45681	5025.577	
40.50024	5014.419	
40.56463	5025.369	
40.60936	5006.438	
40.6744	5021.147	
40.71907	5009.663	
40.78394	5004.428	
40.82837	5005.423	
40.89453	4989.222	
40.93843	4990.618	
41.00315	4982.082	
41.0479	4980.129	
41.11363	4963.87	
41.15652	4961.904	
41.22091	4969.074	
41.26458	4965.411	
41.33191	4960.086	
41.37606	4951.401	
41.44078	4949.183	
41.48432	4936.109	
41.54885	4925.11	
41.59348	4917.445	
41.65961	4925.426	
41.70318	4910.519	
41.76971	4910.981	
41.81451	4900.965	
41.87943	4907.667	
41.92279	4894.162	
41.98785	4893.534	
42.03191	4889.554	
42.09749	4897.124	
42.14141	4898.229	
42.20861	4880.75	
42.25285	4874.369	
42.31672	4876.521	
42.36183	4867.826	
42.42592	4867.437	
42.47032	4864.274	
42.53669	4852.333	
42.58131	4842.457	
42.64621	4835.23	
42.68962	4845.306	
42.75422	4836.263	
42.79838	4832.338	
42.86562	4833.253	
42.90894	4813.189	
42.97514	4826.076	
43.01919	4817.15	
43.08336	4811.642	
43.12731	4813.604	
43.19239	4809.18	
43.23713	4789.315	
43.30203	4787.869	
43.34654	4804.485	
43.41137	4777.661	
43.45538	4779.949	
43.52007	4773.225	
43.56492	4766.809	
43.63099	4767.005	
43.67579	4751.007	
43.74023	4742.674	
43.784	4747.424	
43.8486	4744.184	
43.8927	4732.199	
43.95794	4745.297	
44.00273	4730.235	
44.06903	4729.517	
44.11255	4729.119	
44.17765	4717.605	
44.2216	4717.261	
44.28571	4711.273	
44.33046	4713.172	
44.39548	4704.499	
44.43982	4700.34	
44.50537	4694.47	
44.55066	4692.07	
44.61467	4682.479	
44.65731	4683.862	
44.72365	4671.458	
44.76882	4665.104	
44.83438	4653.401	
44.8787	4658.528	
44.94523	4654.783	
44.98798	4647.083	
45.05234	4639.77	
45.09615	4645.631	
45.16098	4638.226	
45.20538	4636.912	
45.27013	4638.079	
45.31475	4617.837	
45.3807	4632.606	
45.4249	4617.732	
45.49024	4611.474	
45.53427	4602.712	
45.59924	4610.324	
45.64352	4593.573	
45.70876	4584.376	
45.7527	4586.862	
45.81931	4576.181	
45.86385	4581.409	
45.92881	4583.371	
45.97315	4567.807	
46.03854	4577.024	
46.08285	4568.904	
46.14853	4548.911	
46.19185	4550.82	
46.25705	4542.126	
46.30118	4551.127	
46.36579	4540.599	
46.41032	4551.118	
46.4765	4531.833	
46.52099	4529.989	
46.58515	4535.053	
46.62934	4521.238	
46.69496	4527.608	
46.7397	4495.352	
46.80599	4505.112	
46.84812	4509.405	
46.91262	4516.263	
46.95735	4490.083	
47.02389	4490.282	
47.0681	4494.721	
47.13379	4487.469	
47.17809	4480.915	
47.24218	4472.976	
47.28583	4468.767	
47.35228	4468.012	
47.39705	4462.589	
47.46191	4457.628	
47.50548	4449.331	
47.57126	4446.62	
47.6156	4438.414	
47.68031	4445.868	
47.72395	4436.424	
47.78891	4428.032	
47.83328	4432.897	
47.89908	4424.833	
47.94386	4413.328	
48.01089	4409.505	
48.05633	4396.025	
48.11857	4413.309	
48.16238	4391.332	
48.2286	4397.362	
48.27216	4397.174	
48.33708	4394.919	
48.38194	4382.074	
48.44771	4381.911	
48.4916	4381.804	
48.55685	4370.471	
48.60378	4365.347	
48.67011	4365.908	
48.71491	4349.041	
48.78095	4354.253	
48.82363	4340.587	
48.88871	4343.19	
48.9331	4330.392	
48.99829	4341.056	
49.04374	4322.799	
49.10693	4337.872	
49.1512	4321.127	
49.21772	4314.779	
49.26183	4309.865	
49.32653	4304.912	
49.36989	4296.24	
49.43605	4306.723	
49.47979	4289.053	
49.54607	4289.487	
49.59177	4295.023	
49.65449	4287.745	
49.69845	4277.057	
49.76485	4277.997	
49.80932	4275.567	
49.87597	4277.555	
49.91874	4265.164	
49.98186	4270.621	
50.02815	4258.31	
50.09305	4254.39	
50.13812	4252.131	
50.20187	4237.606	
50.24547	4229.867	
50.31036	4243.501	
50.35606	4228.618	
50.42046	4232.327	
50.46374	4210.888	
50.52888	4240.52	
50.57392	4214.549	
50.64093	4216.007	
50.68671	4209.331	
50.75164	4213.334	
50.79645	4201.781	
50.86262	4197.009	
50.9067	4190.64	
50.97243	4196.982	
51.01668	4186.622	
51.081	4185.752	
51.12552	4183.734	
51.19144	4174.386	
51.23571	4172.731	
51.29995	4169.086	
51.34402	4155.718	
51.40969	4149.874	
51.45339	4152.198	
51.51889	4155.277	
51.56397	4142.921	
51.62846	4144.411	
51.67359	4129.03	
51.73669	4140.363	
51.77996	4121.024	
51.84747	4119.167	
51.89226	4114.085	
51.95677	4116.658	
52.00117	4105.399	
52.06684	4111.256	
52.11244	4089.26	
52.17633	4095.063	
52.22018	4084.609	
52.28474	4089.067	
52.33098	4080.458	
52.39363	4083.849	
52.43689	4083.162	
52.50151	4067.629	
52.54641	4055.763	
52.61398	4062.144	
52.65764	4052.597	
52.72105	4059.159	
52.76479	4056.675	
52.83063	4047.915	
52.87591	4053.421	
52.94224	4046.8	
52.98595	4024.155	
53.05005	4035.932	
53.09445	4038.62	
53.16125	4028.289	
53.20464	4019.065	
53.27027	4024.848	
53.31458	4002.253	
53.3786	4011.114	
53.42343	4004.858	
53.48876	4001.478	
53.53306	4003.382	
53.59846	3991.041	
53.64166	3981.033	
53.70577	3987.547	
53.75312	3977.608	
53.8169	3967.739	
53.862	3970.627	
53.92757	3984.98	
53.97121	3959.563	
54.03768	3974.433	
54.08184	3951.38	
54.14572	3948.495	
54.19033	3947.972	
54.25542	3951.044	
54.30003	3939.92	
54.3655	3948.662	
54.4087	3933.773	
54.47461	3941.053	
54.51939	3928.878	
54.58463	3927.571	
54.62846	3915.861	
54.69394	3924.292	
54.73841	3907.744	
54.80346	3912.989	
54.84739	3907.073	
54.91179	3899.812	
54.9569	3901.927	
55.0227	3896.128	
55.06668	3894.805	
55.13141	3876.935	
55.17544	3870.715	
55.24288	3882.93	
55.28738	3865.962	
55.35231	3879.185	
55.39508	3862.313	
55.46027	3865.772	
55.50479	3852.955	
55.56935	3853.71	
55.61437	3848.874	
55.67961	3848.897	
55.7244	3839.818	
55.79115	3837.887	
55.8347	3830.097	
55.89867	3840.006	
55.94289	3818.588	
56.00881	3821	
56.05301	3817.791	
56.11817	3820.202	
56.16217	3797.46	
56.22747	3798.285	
56.2723	3801.921	
56.33818	3800.062	
56.38132	3791.34	
56.44635	3795.57	
56.49136	3785.305	
56.55853	3789.158	
56.60187	3777.03	
56.66555	3778.69	
56.71034	3771.681	
56.77542	3782.521	
56.82081	3759.763	
56.88708	3766.006	
56.93166	3760.804	
56.99632	3756.602	
57.04055	3744.61	
57.10546	3756.497	
57.14901	3731.421	
57.21558	3736.851	
57.26152	3729.58	
57.32387	3729.257	
57.36798	3729.681	
57.43424	3726.453	
57.47784	3716.478	
57.5418	3714.498	
57.5862	3695.972	
57.65166	3714.091	
57.69716	3703.425	
57.76303	3700.274	
57.80765	3692.014	
57.87215	3700.162	
57.91855	3684.283	
57.98402	3685.418	
58.03153	3680.969	
58.09826	3680.918	
58.14326	3676.266	
58.20729	3687.24	
58.25573	3668.984	
58.3221	3669.023	
58.36573	3654.493	
58.43035	3659.602	
58.4787	3648.817	
58.54332	3654.568	
58.58893	3639.553	
58.65358	3655.573	
58.69895	3636.741	
58.76327	3650.22	
58.80839	3627.458	
58.87225	3629.242	
58.91664	3627.399	
58.98126	3621.39	
59.02604	3609.872	
59.09178	3615.886	
59.13503	3612.001	
59.20134	3601.795	
59.24677	3606.84	
59.31273	3607.553	
59.35558	3592.185	
59.42275	3584.503	
59.46611	3575.305	
59.53175	3581.992	
59.57766	3578.871	
59.6456	3583.323	
59.68801	3568.217	
59.75645	3575.104	
59.80133	3568.084	
59.86849	3570.287	
59.91192	3552.648	
59.979	3549.531	
60.024	3545.438	
60.09167	3549.855	
60.13588	3543.707	
60.20281	3553.671	
60.24639	3532.734	
60.31256	3546.46	
60.35674	3531.788	
60.42496	3532.206	
60.46937	3524.195	
60.5388	3521.032	
60.58387	3518.232	
60.64849	3517.92	
60.69149	3499.181	
60.75939	3501.229	
60.80402	3493.552	
60.87283	3506.545	
60.91774	3488.606	
60.98344	3500.75	
61.0286	3486.165	
61.09909	3490.538	
61.14257	3477.85	
61.21041	3481.55	
61.25508	3465.678	
61.32136	3477.308	
61.36488	3462.271	
61.43289	3466.965	
61.47724	3452.118	
61.54361	3455.917	
61.58796	3439.907	
61.65381	3453.106	
61.6983	3448.039	
61.76259	3453.396	
61.80631	3444.977	
61.87266	3451.969	
61.91773	3435.797	
61.98195	3439.186	
62.02852	3425.457	
62.09242	3429.12	
62.13611	3424.104	
62.20047	3433.507	
62.24567	3421.251	
62.31104	3418.927	
62.35551	3412.878	
62.42028	3421.056	
62.46389	3409.338	
62.53026	3405.676	
62.57286	3402.316	
62.639	3405.59	
62.68438	3391.024	
62.74854	3401.187	
62.79204	3386.653	
62.85795	3394.229	
62.90226	3392.054	
62.96709	3388.928	
63.01342	3390.789	
63.0769	3376.506	
63.12088	3387.064	
63.18675	3377.71	
63.23093	3372.246	
63.29905	3369.637	
63.34552	3356.871	
63.40909	3360.896	
63.45408	3353.573	
63.51949	3353.757	
63.56654	3340.255	
63.63227	3353.278	
63.67617	3347.304	
63.74212	3351.855	
63.78621	3344.697	
63.85186	3347.418	
63.89678	3342.23	
63.96069	3339.325	
64.00496	3335.062	
64.07005	3335.696	
64.1148	3322.391	
64.18124	3334.291	
64.22528	3321.811	
64.29055	3330.125	
64.33401	3325.329	
64.39909	3320.553	
64.44339	3318.516	
64.5084	3322.392	
64.55277	3314.643	
64.6174	3324.594	
64.66365	3310.699	
64.72907	3317.571	
64.7721	3313.389	
64.83729	3310.71	
64.88242	3312.073	
64.95144	3319.202	
64.99577	3307.685	
65.06015	3309.294	
65.10439	3310.532	
65.17004	3310.786	
65.21498	3302.71	
65.28046	3310.01	
65.32446	3303.292	
65.38914	3314.098	
65.43343	3301.902	
65.49841	3308.029	
65.54273	3299.689	
65.60912	3309.325	
65.65292	3301.183	
65.7173	3308.095	
65.76536	3300.55	
65.83189	3309.865	
65.87576	3302.203	
65.94133	3315.261	
65.98581	3309.699	
66.05209	3318.151	
66.09666	3315.786	
66.16026	3323.669	
66.20363	3322.066	
66.26819	3328.529	
66.31358	3314.474	
66.3813	3342.356	
66.42458	3325.52	
66.48862	3335.861	
66.53207	3327.675	
66.59674	3342.333	
66.6419	3343.458	
66.70869	3355.604	
66.75287	3354.697	
66.81797	3360.404	
66.86256	3357.03	
66.9267	3385.192	
66.97211	3369.235	
67.03967	3383.292	
67.08253	3384.969	
67.14661	3395.428	
67.19112	3382.023	
67.25649	3412.432	
67.30078	3399.164	
67.36655	3430.579	
67.4106	3419.257	
67.47612	3436.003	
67.52045	3434.507	
67.58627	3444.16	
67.62933	3454.054	
67.69471	3473.814	
67.73961	3473.615	
67.80467	3482.344	
67.84933	3478.627	
67.91358	3503.772	
67.95704	3504.132	
68.02357	3515.246	
68.06853	3523.397	
68.13356	3547.771	
68.17651	3546.289	
68.24237	3570.397	
68.28719	3574.618	
68.35162	3604.532	
68.39618	3602.244	
68.46108	3630.832	
68.50475	3633.505	
68.5705	3655.593	
68.61506	3666.056	
68.68235	3684.932	
68.72733	3695.729	
68.79452	3724.898	
68.83804	3734.734	
68.90452	3770.79	
68.9483	3768.647	
69.01421	3800.41	
69.05958	3812.817	
69.12264	3853.997	
69.16736	3857.188	
69.23056	3899.205	
69.2757	3909.57	
69.34003	3945.533	
69.38482	3949.422	
69.45197	3987.801	
69.49499	3997.183	
69.56006	4038.621	
69.60612	4053.041	
69.66837	4103.473	
69.71272	4114.873	
69.78022	4153.257	
69.82476	4172.444	
69.88981	4216.763	
69.93413	4232.559	
69.99833	4292.232	
70.04324	4294.479	
70.10818	4368.906	
70.15091	4372.677	
70.21669	4435.627	
70.2627	4444.014	
70.3278	4506.916	
70.3719	4525.845	
70.43946	4590.299	
70.48441	4610.335	
70.55058	4674.426	
70.59476	4697.713	
70.66071	4765.448	
70.70495	4793.12	
70.76906	4860.094	
70.81242	4873.32	
70.87749	4952.692	
70.92284	4979.547	
70.9892	5054.835	
71.03299	5076.908	
71.0991	5157.354	
71.14383	5158.016	
71.20777	5219.988	
71.25339	5255.878	
71.31875	5309.477	
71.36312	5328.787	
71.43018	5400.628	
71.47404	5416.292	
71.53956	5486.007	
71.5878	5497.302	
71.65424	5588.385	
71.69854	5591.837	
71.76367	5688.837	
71.80763	5700.832	
71.87316	5792.205	
71.92035	5797.359	
71.98454	5872.242	
72.02983	5906.524	
72.09642	5979.393	
72.13969	5998.057	
72.20471	6043.611	
72.2515	6088.225	
72.3151	6134.777	
72.35805	6145.164	
72.42513	6219.17	
72.46877	6230.35	
72.53354	6305.568	
72.58147	6295.586	
72.65003	6365.532	
72.69397	6364.412	
72.75679	6408.982	
72.79971	6422.166	
72.86637	6486.95	
72.91219	6492.335	
72.97588	6536.418	
73.02058	6524.751	
73.08429	6580.329	
73.12862	6574.054	
73.19733	6628.483	
73.24062	6621.032	
73.30315	6667.502	
73.34811	6658.592	
73.41405	6694.966	
73.4584	6685.414	
73.52386	6723.743	
73.57236	6723.461	
73.63686	6767.955	
73.68191	6755.25	
73.74854	6777.337	
73.79306	6766.713	
73.85622	6817.687	
73.90049	6793.184	
73.96543	6833.22	
74.01057	6813.146	
74.07674	6847.045	
74.12054	6839.102	
74.1865	6861.213	
74.23013	6847.484	
74.29399	6870.388	
74.33844	6861.463	
74.40622	6893.357	
74.45483	6877.842	
74.5186	6910.636	
74.56212	6894.277	
74.62679	6926.115	
74.67249	6914.454	
74.73757	6947.288	
74.78159	6928.948	
74.84814	6941.204	
74.89227	6924.513	
74.95737	6956.409	
75.00043	6942.023	
75.06668	6972.71	
75.11223	6944.463	
75.17796	6975.171	
75.22126	6940.893	
75.28726	6996.211	
75.3316	6975.752	
75.39986	6989.818	
75.44482	6988.218	
75.51023	6998.271	
75.55428	6987.037	
75.62048	7014.167	
75.66367	7006.324	
75.72876	7019.812	
75.7722	7001.442	
75.8412	7024.689	
75.88611	7003.667	
75.94992	7028.299	
75.99392	7009.099	
76.06271	7042.628	
76.10758	7015.098	
76.17294	7038.311	
76.21758	7020.717	
76.28684	7051.074	
76.33142	7036.631	
76.39649	7044.968	
76.44093	7042.076	
76.50977	7052.493	
76.55492	7052.873	
76.61856	7059.39	
76.66216	7029.529	
76.7296	7060.834	
76.7728	7046.19	
76.83744	7059.025	
76.88522	7035.168	
76.95104	7074.369	
76.99539	7042.91	
77.06093	7097.453	
77.10739	7038.445	
77.17057	7069.25	
77.21377	7043.7	
77.28138	7077.264	
77.32953	7050.571	
77.3937	7067.697	
77.43866	7043.195	
77.50317	7065.228	
77.54845	7053.285	
77.61182	7073.017	
77.65646	7040.737	
77.72202	7072.049	
77.76942	7031.969	
77.83726	7054.027	
77.88087	7049.813	
77.94521	7063.303	
77.99285	7043.546	
78.0581	7053.084	
78.10321	7032.401	
78.16886	7049.678	
78.21602	7022.801	
78.28049	7045.605	
78.32526	7034.357	
78.39202	7038.173	
78.43699	7016.641	
78.50401	7055.91	
78.54628	7005.81	
78.61094	7042.904	
78.65414	7010.468	
78.72216	7050.924	
78.76724	7015.431	
78.83392	7042.615	
78.87766	7029.375	
78.94695	7025.972	
78.99206	6994.706	
79.05628	7038.858	
79.10017	7028.006	
79.16821	7024.172	
79.21368	6991.603	
79.27987	7007.637	
79.32416	6990.025	
79.39217	7016.621	
79.43753	6971.935	
79.50247	7019.351	
79.54721	7001.113	
79.61651	7009.738	
79.66062	6984.91	
79.72445	7005.375	
79.76857	6990.505	
79.83884	7017.791	
79.88329	6975.583	
79.94789	7006.699	
79.99236	6973.136	
80.05804	7012.62	
80.10647	6962.707	
80.17184	6995.109	
80.21583	6977.446	
80.2831	6996.688	
80.32792	6965.734	
80.39608	6983.918	
80.4399	6958.867	
80.50357	6990.127	
80.54788	6955.604	
80.61456	6983.871	
80.66342	6946.3	
80.72841	6993.633	
80.7719	6941.524	
80.83688	6976.611	
80.88039	6941.274	
80.94848	6959.418	
80.99273	6957.832	
81.05983	6967.278	
81.1049	6940.267	
81.16931	6966.993	
81.21696	6949.636	
81.28188	6960.907	
81.32594	6934.961	
81.39027	6983.321	
81.43461	6956.787	
81.5062	6959.539	
81.5506	6938.354	
81.6152	6966.487	
81.66024	6933.01	
81.72521	6972.033	
81.76849	6939.038	
81.83684	6970.764	
81.88169	6920.157	
81.94572	6963.425	
81.99146	6929.141	
82.05763	6954.026	
82.10131	6938.243	
82.17027	6959.168	
82.21418	6942.519	
82.28004	6952.459	
82.32441	6923.657	
82.38956	6965.809	
82.43687	6930.654	
82.50154	6958.386	
82.54741	6919.1	
82.61366	6953.836	
82.65587	6915.161	
82.72273	6959.785	
82.76933	6934.408	
82.83508	6974.187	
82.87994	6935.375	
82.94386	6959.525	
82.98805	6919.103	
83.05648	6939.87	
83.10056	6934.944	
83.16599	6958.784	
83.21049	6920.292	
83.27769	6938.856	
83.32535	6925.611	
83.38945	6946.36	
83.43472	6932.141	
83.50011	6955.446	
83.54515	6928.667	
83.60867	6935.102	
83.65154	6921.238	
83.71769	6943.649	
83.76321	6907.555	
83.82931	6937.682	
83.87321	6921.235	
83.94043	6944.337	
83.98523	6903.45	
84.05094	6915.363	
84.09483	6911.195	
84.16068	6927.943	
84.20943	6893.49	
84.27636	6928.589	
84.31879	6878.013	
84.38344	6912.467	
84.42797	6877.065	
84.49764	6910.528	
84.54253	6869.255	
84.60622	6905.261	
84.65095	6872.811	
84.71593	6901.533	
84.76353	6867.09	
84.82957	6898.141	
84.87381	6848.572	
84.93902	6887.139	
84.98277	6854.652	
85.04845	6898.153	
85.09303	6843.376	
85.15831	6871.45	
85.20331	6833.297	
85.26843	6837.801	
85.31122	6815.063	
85.37665	6842.47	
85.42154	6814.8	
85.48732	6831.912	
85.53139	6811.671	
85.59637	6832.259	
85.64146	6811.484	
85.70562	6825.559	
85.74928	6794.736	
85.81557	6814.382	
85.85932	6766.146	
85.92562	6795.289	
85.97031	6763.15	
86.03563	6781.465	
86.08117	6758.729	
86.14582	6776.587	
86.189	6742.809	
86.25456	6762.11	
86.2983	6730.182	
86.36391	6748.877	
86.40804	6709.476	
86.47273	6740.659	
86.51788	6700.745	
86.5835	6713.439	
86.62786	6659.719	
86.69338	6702.747	
86.7375	6661.756	
86.80354	6690.215	
86.84814	6646.458	
86.91299	6671.654	
86.95718	6637.925	
87.02268	6639.027	
87.06624	6617.922	
87.13283	6648.077	
87.17709	6605.899	
87.24174	6632.601	
87.28535	6602.055	
87.35111	6616.8	
87.39579	6571.382	
87.46098	6608.454	
87.505	6572.156	
87.57121	6599.175	
87.61582	6554.137	
87.68005	6570.967	
87.72383	6533.059	
87.78794	6560.22	
87.83179	6527.387	
87.89825	6535.646	
87.94352	6514.653	
88.00793	6528.018	
88.05176	6500.967	
88.11781	6507.232	
88.16175	6471.852	
88.22625	6486.042	
88.27028	6453.858	
88.33581	6495.671	
88.38235	6440.259	
88.44667	6481.468	
88.4929	6442.343	
88.55638	6459.411	
88.60035	6410.816	
88.66663	6449.848	
88.71085	6386.246	
88.77528	6415.72	
88.81934	6394.295	
88.88491	6411.512	
88.93147	6358.354	
88.99597	6388.315	
89.04081	6338.141	
89.10474	6370.377	
89.14659	6330.548	
89.21325	6348.7	
89.25877	6324.041	
89.3247	6336.278	
89.36951	6296.821	
89.43417	6324.351	
89.47768	6291.083	
89.54245	6296.768	
89.58707	6265.203	
89.65276	6300.835	
89.69614	6249.712	
89.76101	6270.632	
89.80606	6241.702	
89.87257	6252.499	
89.91612	6224.732	
89.98064	6248.321	
90.02426	6216.545	
90.0899	6232.69	
90.13409	6196.197	
90.19836	6219.008	
90.24364	6181.143	
90.31248	6198.104	
90.35568	6159.048	
90.41671	6184.789	
90.46103	6142.251	
90.52905	6171.951	
90.57372	6132.49	
90.63912	6150.62	
90.68335	6109.086	
90.74697	6137.312	
90.79179	6108.558	
90.85726	6128.734	
90.90201	6088.622	
90.96816	6088.558	
91.0133	6063.571	
91.07679	6082.148	
91.12076	6039.247	
91.18632	6075.521	
91.22963	6029.432	
91.2953	6059.43	
91.33946	6006.338	
91.40393	6038.23	
91.44831	6018.032	
91.5142	6025.12	
91.55956	6003.232	
91.62365	6031.972	
91.66821	5972.745	
91.73396	5985.008	
91.77993	5952.618	
91.8455	5976.667	
91.88857	5929.939	
91.95256	5966.766	
91.99661	5904.874	
92.06194	5951.121	
92.10629	5911.45	
92.17347	5924.444	
92.21802	5884.332	
92.28134	5914.303	
92.32523	5875.327	
92.39229	5910.084	
92.43642	5863.252	
92.50241	5887.232	
92.54696	5839.104	
92.6104	5859.604	
92.65422	5828.097	
92.72128	5854.714	
92.76548	5803.363	
92.82928	5835.492	
92.8735	5777.198	
92.93875	5838.35	
92.98284	5783.982	
93.05	5810.487	
93.09443	5763.131	
93.15911	5791.35	
93.20335	5743.489	
93.26829	5746.098	
93.31306	5732.822	
93.37849	5770.707	
93.42241	5725.11	
93.48687	5730.438	
93.53088	5710.984	
93.59837	5718.556	
93.64256	5687.798	
93.70736	5715.021	
93.75225	5672.595	
93.81735	5683.187	
93.86067	5660.322	
93.92394	5671.012	
93.96774	5638.617	
94.03297	5662.121	
94.07591	5620.063	
94.13642	5655.519	
94.17722	5616.524	
94.23743	5631.011	
94.27806	5609.531	
94.3356	5620.871	
94.37321	5591.658	
94.42863	5614.116	
94.46445	5563.611	
94.51681	5596.647	
94.55076	5564.364	
94.59889	5565.989	
94.63025	5553.911	
94.67338	5579.04	
94.70179	5540.825	
94.74303	5576.133	
94.76916	5528.963	
94.8052	5561.221	
94.82778	5523.491	
94.85899	5559.022	
94.8783	5506.74	
94.90465	5544.705	
94.92131	5498.262	
94.94214	5535.741	
94.95403	5497.69	
94.96894	5528.136	
94.97978	5483.109	
94.991	5530.04	
