T[Â°C]	330nm [counts / mm]	S.D.
20.0012	3501.573	34.67589
20.05515	3505.737	38.92363
20.1091	3497.347	35.46097
20.16305	3497.362	42.08237
20.21699	3498.361	43.41032
20.27094	3493.485	38.32341
20.32489	3493.103	42.19552
20.37884	3486.756	42.93764
20.43279	3479.008	38.52251
20.48673	3480.666	34.1146
20.54068	3474.865	40.28119
20.59463	3468.585	41.65583
20.64857	3470.572	40.47752
20.70252	3467.713	38.61698
20.75647	3467.174	36.54529
20.81042	3464.217	36.58949
20.86437	3464.074	39.12791
20.91831	3457.849	42.64594
20.97226	3456.643	41.12276
21.02621	3450.625	40.73
21.08016	3450.821	36.99633
21.1341	3449.006	39.98287
21.18805	3447.361	36.66358
21.242	3445.216	39.70299
21.29595	3439.255	38.81746
21.34989	3432.268	38.6139
21.40384	3434.343	33.88561
21.45779	3432.511	39.152
21.51174	3429.397	32.83545
21.56569	3428.751	34.58931
21.61963	3425.378	36.46313
21.67358	3425.712	35.54935
21.72753	3421.841	42.67558
21.78148	3416.663	42.52649
21.83542	3415.827	39.89286
21.88937	3410.838	40.33556
21.94332	3406.773	40.7529
21.99727	3401.377	39.4283
22.05121	3401.391	38.46946
22.10516	3396.251	40.42093
22.15911	3398.497	39.12011
22.21306	3391.155	46.24401
22.267	3393.451	42.38964
22.32095	3389.797	34.6903
22.3749	3384.021	38.26404
22.42885	3384.905	37.1851
22.48279	3382.344	38.17615
22.53674	3378.816	37.53811
22.59069	3374.756	39.75894
22.64464	3372.692	36.0261
22.69859	3369.261	35.24329
22.75253	3367.625	37.5566
22.80648	3364.942	33.67439
22.86043	3368.157	38.94026
22.91438	3364.609	38.22365
22.96832	3352.055	36.78384
23.02227	3353.073	39.58717
23.07622	3351.155	39.1367
23.13017	3351.088	35.55145
23.18411	3344.923	37.35674
23.23806	3343.635	39.65297
23.29201	3344.218	43.04515
23.34596	3344.034	39.13734
23.3999	3340.425	38.49438
23.45385	3337.19	40.93187
23.5078	3336.586	40.31792
23.56175	3329.32	37.84766
23.6157	3326.212	39.38846
23.66964	3322.837	41.93841
23.72359	3318.251	41.59813
23.77754	3318.121	35.43584
23.83149	3320.274	30.36212
23.88543	3316.507	35.41712
23.93938	3316.504	35.65208
23.99333	3312.001	33.20961
24.04728	3307.602	36.18061
24.10122	3302.928	33.28777
24.15517	3305.021	39.26267
24.20912	3298.625	37.14059
24.26307	3293.703	40.44967
24.31701	3294.013	38.59985
24.37096	3294.91	40.85302
24.42491	3291.504	32.51897
24.47886	3285.02	32.29932
24.5328	3278.434	35.81575
24.58675	3284.004	33.91451
24.6407	3278.613	38.36225
24.69465	3278.309	37.80009
24.7486	3275.642	30.72441
24.80254	3267.8	37.91788
24.85649	3271.294	37.09791
24.91044	3271.365	33.90424
24.96439	3263.428	36.54479
25.01833	3263.813	38.75925
25.07228	3262.169	38.49632
25.12623	3256.966	35.36527
25.18018	3255.966	34.08405
25.23412	3252.243	33.25244
25.28807	3247.616	34.99286
25.34202	3247.131	35.26444
25.39597	3242.744	34.59436
25.44991	3240.374	30.91395
25.50386	3235.661	38.73735
25.55781	3233.933	35.65138
25.61176	3232.15	39.03624
25.6657	3229.325	40.932
25.71965	3229.866	36.58405
25.7736	3227.8	35.8933
25.82755	3227.074	36.15736
25.8815	3224.822	34.80074
25.93544	3217.349	33.3981
25.98939	3217.762	33.75831
26.04334	3217.461	33.06335
26.09729	3210.758	36.75725
26.15123	3204.847	37.08561
26.20518	3205.277	39.7962
26.25913	3203.877	37.90687
26.31308	3204.614	35.60996
26.36702	3200.294	35.33044
26.42097	3194.315	36.55287
26.47492	3187.783	31.92599
26.52887	3189.334	34.8222
26.58282	3187.661	41.06787
26.63676	3184.971	35.39887
26.69071	3181.508	35.84243
26.74466	3178.009	36.54936
26.7986	3175.36	36.63366
26.85255	3174.39	36.23401
26.9065	3173.399	40.53402
26.96045	3172.387	37.96037
27.0144	3171.832	34.69425
27.06834	3168.831	31.91823
27.12229	3166.56	29.03838
27.17624	3165.668	32.83186
27.23019	3158.962	35.71974
27.28413	3154.718	35.15756
27.33808	3153.549	35.25919
27.39203	3152.262	36.33078
27.44598	3150.251	30.90594
27.49993	3150.951	32.49594
27.55387	3151.395	33.17998
27.60782	3142.091	31.66561
27.66177	3141.788	35.65055
27.71572	3136.243	33.94054
27.76966	3135.111	32.86011
27.82361	3131.029	26.2432
27.87756	3125.246	27.86935
27.93151	3128.077	31.05093
27.98545	3127.6	31.30417
28.0394	3121.018	35.44913
28.09335	3120.281	40.38618
28.1473	3115.038	26.91706
28.20124	3114.119	31.48163
28.25519	3109.998	31.3513
28.30914	3106.398	26.59843
28.36309	3108.507	36.7659
28.41703	3108.982	32.6871
28.47098	3104.838	34.26368
28.52493	3104.388	36.57056
28.57888	3094.996	26.27604
28.63283	3093.159	29.93062
28.68677	3094.016	32.32901
28.74072	3090.283	32.13982
28.79467	3089.597	38.39429
28.84862	3085.954	36.12793
28.90256	3085.301	33.48422
28.95651	3082.614	33.53265
29.01046	3075.614	30.86655
29.06441	3075.847	30.16416
29.11835	3072.326	30.79428
29.1723	3069.19	34.50788
29.22625	3070.829	33.04219
29.2802	3063.455	32.13707
29.33414	3062.757	35.00572
29.38809	3063.77	36.15365
29.44204	3062.127	36.85642
29.49599	3059.334	37.35543
29.54993	3053.629	31.63928
29.60388	3053.223	33.14788
29.65783	3051.233	36.31567
29.71178	3048.34	31.46992
29.76573	3045.146	33.10263
29.81967	3041.838	26.79367
29.87362	3037.205	29.57576
29.92757	3038.942	26.77796
29.98152	3032.093	32.33416
30.03546	3030.773	34.41814
30.08941	3030.25	30.70173
30.14336	3026.982	33.62894
30.19731	3022.448	32.80419
30.25125	3021.452	31.56177
30.3052	3023.915	31.44794
30.35915	3021.799	30.57338
30.4131	3015.187	31.2255
30.46704	3014.56	33.27681
30.52099	3007.902	34.45271
30.57494	3005.476	35.11522
30.62889	3002.371	27.61588
30.68283	3003.919	29.5683
30.73678	3005.279	33.68121
30.79073	3002.536	29.07274
30.84468	2996.265	29.45438
30.89863	2995.165	30.68585
30.95257	2992.039	30.21208
31.00652	2988.547	27.1489
31.06047	2984.847	25.44296
31.11442	2979.004	33.55929
31.16836	2978.723	36.50147
31.22231	2982.958	33.34138
31.27626	2982.552	36.64596
31.33021	2977.977	36.79428
31.38416	2970.37	34.11242
31.4381	2970.265	33.14323
31.49205	2970.325	30.81485
31.546	2966.68	32.85487
31.59995	2964.262	31.26102
31.65389	2963.293	33.58175
31.70784	2957.966	30.07217
31.76179	2954.594	26.00634
31.81573	2952.601	27.55394
31.86968	2947.418	28.37116
31.92363	2945.546	28.70234
31.97758	2946.329	30.17099
32.03152	2946.021	32.15318
32.08547	2944.115	28.40537
32.13942	2940.132	30.20331
32.19337	2938.296	29.69283
32.24732	2934.755	30.29618
32.30127	2930.747	35.61977
32.35521	2929.895	34.64779
32.40916	2930.806	30.64148
32.46311	2926.815	33.41015
32.51706	2921.421	25.85481
32.571	2919.221	27.6237
32.62495	2918.838	30.97662
32.6789	2917.393	32.2654
32.73285	2916.541	32.85225
32.78679	2914.036	32.05307
32.84074	2908.372	30.1181
32.89469	2908.718	32.0701
32.94864	2907.87	29.20576
33.00258	2903.167	29.02943
33.05653	2900.418	31.72778
33.11048	2896.948	25.98411
33.16442	2898.448	29.08404
33.21837	2896.831	31.13116
33.27232	2892.019	33.12447
33.32627	2887.805	33.82709
33.38022	2882.142	34.28392
33.43417	2881.582	33.14342
33.48811	2881.297	24.66814
33.54206	2880.536	24.05813
33.59601	2878.782	28.63946
33.64996	2877.259	31.29198
33.7039	2874.977	32.55925
33.75785	2870.337	30.11328
33.8118	2868.006	32.47226
33.86575	2867.968	29.61431
33.91969	2860.609	24.79693
33.97364	2860.603	25.78513
34.02759	2857.309	28.13716
34.08154	2855.658	28.8552
34.13548	2849.857	31.90339
34.18943	2849.54	29.15413
34.24338	2845.138	33.05273
34.29733	2843.904	31.0067
34.35127	2845.833	30.76121
34.40522	2842.35	33.98677
34.45917	2840.047	33.51749
34.51312	2841.194	32.33028
34.56707	2838.627	28.89102
34.62101	2834.885	30.3636
34.67496	2833.087	33.62025
34.72891	2832.053	30.65545
34.78286	2829.126	29.56282
34.8368	2823.979	33.88876
34.89075	2823.988	32.80989
34.9447	2824.081	29.82066
34.99865	2819.954	29.65668
35.05259	2816.506	26.43877
35.10654	2822.131	31.13526
35.16049	2808.725	26.84929
35.21444	2807.077	25.3543
35.26838	2809.156	24.65497
35.32233	2802.553	29.09208
35.37628	2804.525	29.92584
35.43023	2803.686	29.25437
35.48417	2800.045	29.5621
35.53812	2797.469	27.67379
35.59207	2796.332	29.68592
35.64602	2790.543	27.76964
35.69997	2788.812	27.87746
35.75391	2787.324	26.56931
35.80786	2782.142	28.84629
35.86181	2777.046	30.40503
35.91576	2776.679	26.87315
35.9697	2775.897	27.73205
36.02365	2773.404	31.44245
36.0776	2772.875	31.25258
36.13155	2769.561	34.82415
36.18549	2767.675	30.77089
36.23944	2768.882	28.31856
36.29339	2765.711	29.45353
36.34734	2762.166	24.38568
36.40128	2759.067	25.20709
36.45523	2757.62	22.33053
36.50918	2752.65	30.21416
36.56313	2751.103	25.30591
36.61707	2749.014	26.49086
36.67102	2746.229	30.12098
36.72497	2744.202	27.07313
36.77892	2740.737	27.9223
36.83287	2737.597	29.7287
36.88681	2740.684	24.70867
36.94076	2739.926	25.33485
36.99471	2735.855	29.51381
37.04866	2735.99	30.75498
37.1026	2732.216	32.31969
37.15655	2728.539	31.66089
37.2105	2724.187	24.94724
37.26445	2723.347	25.19296
37.31839	2720.882	29.04531
37.37234	2720.167	24.76154
37.42629	2715.501	24.9546
37.48024	2713.337	23.96267
37.53418	2711.209	29.19974
37.58813	2709.78	30.10632
37.64208	2707.011	30.7681
37.69603	2707.006	32.29459
37.74998	2705.086	25.61313
37.80392	2701.412	27.91725
37.85787	2693.568	29.13176
37.91182	2694.332	28.93238
37.96577	2698.087	22.68661
38.01971	2694.253	25.60642
38.07366	2690.006	27.00056
38.12761	2688.296	28.41372
38.18156	2686.867	27.19184
38.2355	2683.595	24.33403
38.28945	2676.857	27.19983
38.3434	2675.739	25.16867
38.39735	2674.783	24.01087
38.45129	2672.897	28.42582
38.50524	2673.012	30.26245
38.55919	2671.299	28.73238
38.61314	2667.995	26.31184
38.66708	2664.841	26.38547
38.72103	2661.824	27.15437
38.77498	2660.688	26.26123
38.82893	2658.944	26.56013
38.88288	2657.652	27.34318
38.93682	2655.216	27.92419
38.99077	2655.487	29.46125
39.04472	2656.654	27.85265
39.09867	2649.563	28.85647
39.15261	2643.809	32.80455
39.20656	2646.156	28.73301
39.26051	2647.603	31.6592
39.31446	2641.985	28.77969
39.3684	2640.166	27.05262
39.42235	2639.53	27.20689
39.4763	2638.757	24.1145
39.53025	2628.521	31.31669
39.58419	2626.678	24.19642
39.63814	2628.272	27.62049
39.69209	2623.842	24.27614
39.74604	2622.036	25.83836
39.79998	2623.154	26.67675
39.85393	2618.098	27.58547
39.90788	2618.18	28.10994
39.96183	2613.565	31.11843
40.01578	2610.168	32.02468
40.06973	2609.143	30.22887
40.12367	2609.838	27.52663
40.17762	2606.471	28.22625
40.23157	2605.921	29.13767
40.28551	2602.125	27.56199
40.33946	2601.465	28.69533
40.39341	2597.898	26.48302
40.44736	2596.321	28.69559
40.5013	2593.666	26.0079
40.55525	2591.913	22.00862
40.6092	2588.311	22.5052
40.66315	2587.656	22.23362
40.71709	2579.481	31.45081
40.77104	2581.802	24.34335
40.82499	2581.963	25.89608
40.87894	2578.915	24.95811
40.93288	2572.009	22.24943
40.98683	2572.517	26.61626
41.04078	2575.971	26.55898
41.09473	2570.595	30.81003
41.14868	2565.14	28.5131
41.20263	2567.347	26.26596
41.25657	2562.61	26.05558
41.31052	2561.926	25.62182
41.36447	2553.244	25.60699
41.41842	2555.137	25.51129
41.47236	2556.323	26.49672
41.52631	2553.452	27.99466
41.58026	2551.275	26.01939
41.6342	2551.279	22.07724
41.68815	2547.578	18.43839
41.7421	2546.5	23.26137
41.79605	2541.202	26.19059
41.84999	2540.431	25.88255
41.90394	2538.817	23.71648
41.95789	2538.248	23.79643
42.01184	2536.779	24.56137
42.06578	2535.238	21.99121
42.11973	2534.085	22.67403
42.17368	2528.244	26.95216
42.22763	2522.311	27.97036
42.28158	2521.372	24.24128
42.33553	2522.126	21.77911
42.38947	2519.455	27.24703
42.44342	2516.563	29.597
42.49737	2514.853	28.13614
42.55132	2510.468	28.20227
42.60526	2511.56	27.60162
42.65921	2509.975	24.10243
42.71316	2510.448	25.69177
42.76711	2509.527	20.86992
42.82105	2499.963	31.3934
42.875	2498.48	28.77666
42.92895	2498.611	24.39039
42.98289	2497.864	24.35124
43.03684	2491.482	27.28335
43.09079	2494.128	27.61127
43.14474	2489.724	25.07538
43.19868	2485.778	27.59414
43.25263	2485.089	24.17791
43.30658	2484.65	26.19727
43.36053	2481.991	29.20391
43.41448	2485.486	26.42964
43.46843	2476.457	21.6509
43.52237	2476.338	23.07666
43.57632	2471.627	31.19633
43.63027	2470.675	28.59105
43.68422	2470.059	27.36312
43.73816	2466.693	26.95839
43.79211	2467.629	21.93515
43.84606	2469.089	19.90139
43.90001	2460.267	22.54042
43.95395	2459.077	21.42896
44.0079	2453.287	26.01786
44.06185	2455.576	22.24885
44.1158	2449.763	21.44349
44.16974	2449.625	23.01969
44.22369	2449.794	20.87296
44.27764	2446.443	28.8875
44.33158	2447.341	21.65651
44.38554	2445.559	24.46598
44.43948	2438.741	25.52618
44.49343	2438.435	22.65262
44.54738	2438.424	26.52593
44.60133	2437.657	24.39248
44.65527	2434.307	24.7315
44.70922	2430.667	20.48041
44.76317	2427.847	24.40543
44.81712	2430.313	23.80324
44.87106	2422.307	20.32563
44.92501	2426.385	19.789
44.97896	2415.899	21.13078
45.03291	2414.981	21.67122
45.08685	2416.923	27.61061
45.1408	2415.663	24.19634
45.19475	2411.766	26.01846
45.2487	2412.715	25.32805
45.30264	2407.356	23.15524
45.35659	2408.077	22.49829
45.41054	2404.734	23.19361
45.46449	2403.746	24.09953
45.51844	2400.522	24.67552
45.57238	2400.513	27.44483
45.62633	2398.183	28.19282
45.68028	2395.194	23.27227
45.73423	2393.174	21.88618
45.78817	2390.765	26.1753
45.84212	2391.994	28.07542
45.89607	2387.404	25.42123
45.95002	2386.108	28.32964
46.00396	2383.273	21.78968
46.05791	2381.706	20.38336
46.11186	2377.593	19.84771
46.16581	2376.167	20.23184
46.21975	2371.078	25.69746
46.2737	2366.127	25.48685
46.32765	2370.71	25.56883
46.3816	2370.763	27.1239
46.43554	2363.485	23.49285
46.48949	2362.944	26.4462
46.54344	2358.976	27.19252
46.59739	2356.122	29.25164
46.65134	2357.855	24.8861
46.70528	2356.395	26.32322
46.75923	2354.303	22.25229
46.81318	2356.522	20.82069
46.86713	2349.664	25.41846
46.92107	2349.06	29.96367
46.97502	2342.576	22.41075
47.02897	2342.06	23.99315
47.08292	2342.487	23.28488
47.13686	2341.063	23.35359
47.19081	2337.146	23.03394
47.24476	2339.922	20.25458
47.29871	2336.797	20.95513
47.35265	2335.351	19.47767
47.4066	2332.396	19.50969
47.46055	2331.579	21.5397
47.5145	2325.649	18.13647
47.56844	2326.288	18.59096
47.62239	2325.569	20.50963
47.67634	2322.122	26.61382
47.73029	2317.544	20.39398
47.78424	2315.682	22.55929
47.83818	2315.478	25.29766
47.89213	2315.241	23.48585
47.94608	2315.028	23.33895
48.00003	2310.841	24.24807
48.05397	2309.703	26.87408
48.10792	2307.879	26.94629
48.16187	2301.289	18.04758
48.21582	2301.709	20.22015
48.26976	2296.232	19.54932
48.32371	2295.989	23.4155
48.37766	2296.371	23.17237
48.43161	2294.625	20.51664
48.48555	2290.462	22.20799
48.5395	2289.188	22.24399
48.59345	2290.745	18.5443
48.6474	2288.341	20.35485
48.70134	2281.751	21.53687
48.75529	2281.659	25.38874
48.80924	2279.381	19.50028
48.86319	2277.254	21.16624
48.91714	2273.423	26.99766
48.97108	2273.563	24.17773
49.02503	2270.102	20.93141
49.07898	2270.603	23.05238
49.13293	2269.802	21.67175
49.18687	2268.575	22.30319
49.24082	2266.701	23.6623
49.29477	2266.153	24.22822
49.34872	2263.002	25.12764
49.40266	2257.497	24.87241
49.45661	2257.164	24.52732
49.51056	2255.257	20.91352
49.56451	2254.8	19.96258
49.61845	2249.956	22.98229
49.6724	2250.461	20.39604
49.72635	2247.445	22.23643
49.7803	2249.704	22.8031
49.83424	2239.667	28.60386
49.88819	2242.024	26.91612
49.94214	2239.605	24.23808
49.99609	2237.919	25.01678
50.05004	2234.43	24.29698
50.10398	2231.921	24.79116
50.15793	2233.631	23.34354
50.21188	2233.313	22.21952
50.26583	2230.38	24.06169
50.31977	2233.721	23.0757
50.37372	2222.017	24.78526
50.42767	2225.199	23.77606
50.48162	2218.46	20.77869
50.53556	2220.059	20.28193
50.58951	2219.152	20.73863
50.64346	2219.165	21.44587
50.69741	2211.017	21.53423
50.75135	2213.694	21.53583
50.8053	2208.936	25.92511
50.85925	2210.422	22.03208
50.9132	2202.288	21.37128
50.96714	2205.634	16.88807
51.02109	2200.232	21.32195
51.07504	2200.876	20.36463
51.12899	2197.294	20.49289
51.18294	2196.339	24.03488
51.23689	2196.826	18.73642
51.29083	2198.524	19.82917
51.34478	2191.815	19.80421
51.39873	2191.276	21.55006
51.45267	2187.507	20.84532
51.50662	2187.596	22.86382
51.56057	2181.904	25.12592
51.61452	2181.955	21.17695
51.66846	2182.045	19.67239
51.72241	2181.777	18.59629
51.77636	2177.628	17.87005
51.83031	2176.812	18.50047
51.88425	2171.798	18.50663
51.9382	2170.166	18.96001
51.99215	2168.336	21.08902
52.0461	2169.277	21.9234
52.10004	2165.466	22.45758
52.154	2166.607	23.18526
52.20794	2160.116	17.76549
52.26189	2159.529	19.83018
52.31584	2156.132	22.86997
52.36979	2156.891	22.35682
52.42373	2155.804	26.36535
52.47768	2151.445	24.25724
52.53163	2151.344	20.75594
52.58558	2151.822	19.65858
52.63952	2148.516	18.37323
52.69347	2147.087	19.97605
52.74742	2142.252	22.66714
52.80136	2140.132	24.97336
52.85531	2136.899	22.03055
52.90926	2137.457	19.31273
52.96321	2136.819	19.45904
53.01715	2135.533	20.82685
53.0711	2135.245	21.74555
53.12505	2129.715	22.08649
53.179	2127.674	22.0174
53.23294	2125.697	23.91987
53.2869	2124.362	18.53794
53.34084	2121.732	22.23146
53.39479	2123.622	18.06939
53.44874	2117.814	22.21616
53.50269	2116.915	23.43054
53.55663	2114.328	21.10468
53.61058	2113.587	19.60341
53.66453	2114.623	16.02551
53.71848	2114.169	16.35016
53.77242	2107.238	23.37412
53.82637	2106.595	23.77904
53.88032	2101.757	17.54857
53.93427	2104.24	21.54224
53.98821	2095.486	21.40719
54.04216	2094.269	18.80556
54.09611	2095.147	23.54873
54.15005	2095.823	23.97521
54.204	2092.138	19.71868
54.25795	2093.194	17.37442
54.3119	2088.07	19.17041
54.36585	2088.459	16.70995
54.4198	2088.471	19.30652
54.47374	2083.801	17.4343
54.52769	2080.721	17.70936
54.58164	2080.057	22.64588
54.63559	2080.583	11.6132
54.68953	2077.713	14.53962
54.74348	2071.939	19.14742
54.79743	2073.37	20.93289
54.85138	2068.271	20.20806
54.90532	2066.919	19.29948
54.95927	2066.492	23.98362
55.01322	2066.497	21.23553
55.06717	2059.931	22.53894
55.12111	2062.665	19.2134
55.17506	2060.219	18.79456
55.22901	2061.062	19.4548
55.28296	2055.874	21.64865
55.3369	2057.253	18.71837
55.39085	2054.555	19.31533
55.4448	2054.75	21.63972
55.49875	2045.927	17.65943
55.5527	2048.116	21.1984
55.60664	2041.93	18.63037
55.66059	2044.656	16.80324
55.71454	2042.433	23.09658
55.76849	2043.038	24.22616
55.82243	2036.235	21.50035
55.87638	2038.747	18.7673
55.93033	2035.752	21.46535
55.98428	2034.849	22.81974
56.03822	2032.021	22.68497
56.09217	2031.484	18.3791
56.14612	2030.289	20.33602
56.20007	2027.47	20.5339
56.25401	2024.288	17.73282
56.30796	2023.899	18.61855
56.36191	2021.994	20.97198
56.41586	2020.544	17.96621
56.4698	2019.313	16.68866
56.52375	2017.704	19.09023
56.5777	2015.695	19.55509
56.63165	2010.585	22.71071
56.6856	2010.938	20.37673
56.73954	2008.829	16.99405
56.79349	2008.418	21.52429
56.84744	2003.009	20.3636
56.90139	2002.795	20.35329
56.95533	2000.883	18.25049
57.00928	2001.973	19.93578
57.06323	1998.282	20.06624
57.11718	2000.031	22.57562
57.17112	1995.135	17.64924
57.22507	1996.14	15.73163
57.27902	1991.798	21.42799
57.33297	1993.611	20.47034
57.38691	1988.373	18.49944
57.44086	1988.242	16.18292
57.49481	1980.731	19.2644
57.54876	1982.153	15.62287
57.6027	1982.179	20.50329
57.65665	1981.481	17.88579
57.7106	1976.541	16.45736
57.76455	1977.462	13.62819
57.8185	1970.107	21.32006
57.87244	1972.47	15.35088
57.92639	1968.711	16.63144
57.98034	1969.995	16.99265
58.03429	1966.418	17.37742
58.08823	1967.708	20.80753
58.14218	1967.214	16.36381
58.19613	1965.162	17.74298
58.25008	1961.962	20.03677
58.30402	1959.468	20.30342
58.35797	1956.401	20.78413
58.41192	1955.943	20.06065
58.46587	1951.389	16.71703
58.51981	1951.858	17.88491
58.57376	1949.608	16.61416
58.62771	1950.985	16.98075
58.68166	1942.254	21.06909
58.7356	1945.122	15.87673
58.78955	1938.311	14.2808
58.8435	1940.902	16.54907
58.89745	1937.312	18.68349
58.9514	1940.483	17.52682
59.00534	1935.99	19.77496
59.05929	1934.766	15.44207
59.11324	1934.73	18.52007
59.16719	1935.985	15.2422
59.22113	1927.42	18.03051
59.27508	1925.411	17.97751
59.32903	1924.431	19.09576
59.38298	1925.403	17.62601
59.43692	1925.362	17.3324
59.49087	1924.984	20.93611
59.54482	1921.027	21.64446
59.59877	1915.639	17.62554
59.65271	1916.863	16.65748
59.70666	1913.19	20.0038
59.76061	1916.924	20.56852
59.81456	1914.303	18.82998
59.8685	1918.289	21.8111
59.92245	1909.24	18.44807
59.9764	1909.694	20.10773
60.03035	1905.146	19.23777
60.0843	1906.84	16.28532
60.13824	1903.829	22.43876
60.19219	1904.148	22.45161
60.24614	1897.236	18.36712
60.30009	1894.708	17.88772
60.35403	1896.349	19.06533
60.40798	1895.699	15.41217
60.46193	1888.882	17.78559
60.51588	1891.4	16.73581
60.56982	1888.551	18.88993
60.62377	1891.667	17.13158
60.67772	1887	18.46813
60.73167	1885.814	20.53959
60.78561	1880.449	17.39428
60.83956	1883.133	18.8506
60.89351	1879.055	16.74338
60.94746	1878.56	18.51579
61.0014	1874.577	18.52266
61.05536	1876.501	19.90439
61.1093	1872.371	16.85922
61.16325	1870.927	22.30992
61.2172	1869.242	18.17702
61.27114	1868.154	20.67348
61.32509	1865.487	16.84198
61.37904	1864.856	15.04033
61.43299	1860.104	16.88037
61.48693	1860.192	17.36789
61.54088	1858.058	15.79094
61.59483	1856.973	15.4692
61.64878	1856.889	17.25745
61.70272	1857.494	17.60863
61.75667	1852.151	18.94114
61.81062	1852.071	18.0249
61.86457	1848.352	17.99824
61.91851	1849.517	17.64502
61.97246	1846.262	20.71955
62.02641	1847.968	17.20001
62.08036	1841.778	20.17365
62.13431	1842.685	18.14886
62.18826	1838.484	16.27907
62.2422	1841.731	17.71397
62.29615	1838.975	17.76757
62.3501	1838.05	15.52169
62.40405	1834.01	13.81458
62.45799	1836.55	14.74315
62.51194	1837.455	15.09958
62.56589	1833.536	16.83661
62.61983	1832.119	18.35961
62.67378	1828.482	16.93465
62.72773	1829.489	18.73636
62.78168	1827.172	17.06183
62.83562	1827.522	19.47138
62.88957	1822.929	17.42982
62.94352	1823.001	16.94284
62.99747	1818.089	19.4796
63.05141	1819.211	20.94314
63.10536	1817.371	17.4325
63.15931	1818.448	16.1237
63.21326	1810.643	17.05614
63.26721	1813.224	13.29224
63.32116	1811.174	15.33755
63.3751	1811.185	16.44048
63.42905	1810.58	14.83669
63.483	1815.889	20.05621
63.53695	1807.878	20.81721
63.59089	1807.987	19.04342
63.64484	1802.254	21.49644
63.69879	1805.076	17.82598
63.75274	1799.617	22.33595
63.80668	1801.333	17.47103
63.86063	1799.007	15.01216
63.91458	1799.28	15.84341
63.96852	1797.101	18.35224
64.02248	1797.813	16.335
64.07642	1796.127	15.67069
64.13037	1793.984	17.06711
64.18432	1790.678	18.78697
64.23827	1792.608	17.72122
64.29221	1789.081	19.49299
64.34616	1789.421	18.29212
64.40011	1786.451	17.10447
64.45406	1787.251	17.63354
64.508	1784.102	16.81444
64.56195	1787.619	15.04129
64.6159	1780.464	21.28829
64.66985	1783.239	19.05175
64.72379	1778.476	18.2426
64.77774	1780.165	18.43543
64.83169	1776.258	22.43901
64.88564	1778.634	20.50963
64.93958	1781.905	16.57658
64.99353	1782.588	16.94046
65.04748	1777.794	18.54159
65.10143	1777.679	16.67506
65.15537	1773.38	21.13689
65.20932	1775.031	19.05318
65.26327	1772.645	15.8506
65.31721	1774.653	18.78103
65.37116	1774.113	18.18479
65.42511	1772.035	16.98916
65.47906	1772.711	19.20011
65.533	1774.989	20.16553
65.58695	1774.249	17.60055
65.6409	1771.938	19.00223
65.69485	1774.113	26.06859
65.74879	1770.871	22.06978
65.80274	1770.394	20.28071
65.85669	1772.752	22.0485
65.91064	1774.949	19.87903
65.96458	1771.74	22.51577
66.01854	1775.408	21.54732
66.07249	1770.856	21.8826
66.12643	1777.197	19.68251
66.18038	1772.93	19.21706
66.23433	1778.126	18.9281
66.28828	1775.08	21.49676
66.34222	1779.107	19.40089
66.39617	1775.462	21.8823
66.45012	1777.38	20.22444
66.50407	1779.951	21.62447
66.55801	1781.555	21.27005
66.61196	1779.438	23.06747
66.66591	1779.548	20.8457
66.71986	1782.371	21.66153
66.7738	1785.034	22.60528
66.82775	1786.704	19.81653
66.8817	1789.34	20.12287
66.93565	1786.809	25.03666
66.98959	1793.338	25.08583
67.04354	1791.208	22.42667
67.09749	1794.547	20.66156
67.15144	1799.594	20.82017
67.20538	1802.242	23.67704
67.25933	1801.509	24.31008
67.31328	1807.657	25.8013
67.36723	1814.193	25.43132
67.42117	1817.354	25.65285
67.47512	1818.516	30.03052
67.52907	1825.424	26.07475
67.58302	1826.318	31.19641
67.63696	1830.731	28.92525
67.69091	1832.568	25.55056
67.74486	1838.492	27.95939
67.79881	1841.452	29.64491
67.85275	1847.415	28.30449
67.9067	1848.403	26.77645
67.96065	1858.471	28.74888
68.0146	1861.635	28.77746
68.06854	1870.523	27.16051
68.12249	1870.687	33.51285
68.17644	1878.161	30.61827
68.23039	1883.945	31.33147
68.28434	1889.799	30.94556
68.33829	1897.308	35.77018
68.39223	1906.172	32.32535
68.44618	1912.087	32.32819
68.50013	1921.247	32.89827
68.55408	1924.99	32.46399
68.60802	1935.213	35.36644
68.66197	1941.465	33.67604
68.71592	1951.795	34.6672
68.76987	1958.147	36.35399
68.82381	1969.427	35.85711
68.87776	1980.509	30.84548
68.93171	1989.244	32.09187
68.98566	1997.705	36.19048
69.0396	2006.461	39.44756
69.09355	2021.782	41.72941
69.1475	2028.213	40.32381
69.20145	2041.054	39.64179
69.25539	2054.872	39.46825
69.30934	2069.348	39.34992
69.36329	2078.13	39.01542
69.41724	2088.68	39.08962
69.47118	2100.095	40.77312
69.52513	2113.725	44.19433
69.57908	2127.291	43.86883
69.63303	2141.159	47.57379
69.68697	2152.913	42.71376
69.74092	2168.582	48.85911
69.79487	2184.625	48.71305
69.84882	2204.75	48.42487
69.90276	2210.163	48.18264
69.95671	2230.671	48.35234
70.01066	2245.846	54.04797
70.06461	2263.997	55.35752
70.11855	2281.168	51.45581
70.1725	2297.978	52.1519
70.22645	2311.833	53.39732
70.2804	2332.792	55.59906
70.33434	2348.712	57.397
70.38829	2370.131	60.5206
70.44225	2385.92	58.44937
70.49619	2407.273	56.56499
70.55014	2422.334	56.1017
70.60409	2444.565	56.8312
70.65804	2467.272	57.87079
70.71198	2489.72	56.19264
70.76593	2504.715	60.27737
70.81988	2529.029	63.66864
70.87383	2551.115	67.50217
70.92777	2571.201	66.37402
70.98172	2594.116	64.90899
71.03567	2620.188	62.7101
71.08961	2640.983	64.09547
71.14356	2667.559	64.45995
71.19751	2682.469	68.43217
71.25146	2710.484	69.70293
71.3054	2735.456	66.73584
71.35935	2760.856	69.26189
71.4133	2777.358	68.39902
71.46725	2809.174	68.50746
71.52119	2836.933	74.66712
71.57514	2866.268	76.50004
71.62909	2879.327	77.18613
71.68304	2910.184	75.79102
71.73698	2939.19	72.64261
71.79093	2971.367	72.97038
71.84488	2999.124	75.91686
71.89883	3028.739	78.93107
71.95277	3057.464	79.31733
72.00672	3083.528	76.95345
72.06067	3110.378	78.84254
72.11462	3138.063	84.37345
72.16856	3170.066	84.23373
72.22251	3191.721	83.7584
72.27646	3220.817	83.62711
72.33041	3241.003	80.88638
72.38435	3268.536	82.26308
72.4383	3289.589	75.77814
72.49225	3318.429	73.89151
72.5462	3339.923	72.57559
72.60014	3366.376	67.4532
72.6541	3379.558	69.69489
72.70805	3402.071	72.15241
72.76199	3424.853	77.63146
72.81594	3452.738	73.62822
72.86989	3469.47	64.95625
72.92384	3495.312	67.96327
72.97778	3503.41	66.37567
73.03173	3523.253	62.22812
73.08568	3534.93	64.11758
73.13963	3555.56	62.5943
73.19357	3559.597	56.74224
73.24752	3580.099	56.85489
73.30147	3591.794	54.37743
73.35542	3611.246	49.10471
73.40936	3609.582	58.27374
73.46331	3630.787	56.6363
73.51726	3631.302	54.97994
73.57121	3647.397	51.61997
73.62515	3652.326	54.27412
73.6791	3670.815	48.21228
73.73305	3676.59	55.19066
73.78699	3685.918	50.7506
73.84094	3687.273	48.32414
73.89489	3694.161	48.92978
73.94884	3700.316	47.06257
74.00278	3713.781	45.67804
74.05673	3714.856	40.24418
74.11068	3727.451	43.28219
74.16463	3725.836	42.75216
74.21857	3737.18	43.00663
74.27252	3736.712	39.08088
74.32647	3743.129	40.56489
74.38042	3747.614	44.89918
74.43436	3758.104	43.65027
74.48831	3751.963	49.44943
74.54226	3760.687	48.0434
74.59621	3759.726	40.0418
74.65015	3771.032	40.70198
74.7041	3778.809	41.45955
74.75805	3777.582	41.53746
74.812	3785.031	41.04963
74.86595	3788.189	44.13063
74.9199	3803.571	44.42547
74.97385	3796.532	40.0421
75.02779	3801.873	38.40943
75.08174	3800.681	42.78015
75.13569	3811.85	47.53773
75.18964	3808.803	43.73485
75.24358	3815.351	41.61985
75.29753	3815.344	46.70055
75.35148	3828.906	42.81884
75.40543	3816.759	47.75391
75.45937	3824.444	46.7576
75.51332	3822.253	45.59972
75.56727	3834.034	44.31596
75.62122	3827.957	46.38626
75.67516	3834.705	45.42385
75.72911	3828.543	41.60689
75.78306	3837.978	42.04107
75.83701	3844.024	42.23445
75.89095	3850.727	40.57422
75.9449	3848.814	51.10933
75.99885	3855.598	43.9658
76.0528	3842.856	48.97782
76.10674	3856.529	42.15315
76.16069	3856.366	46.0475
76.21464	3864.874	40.53371
76.26859	3854.068	43.27903
76.32253	3863.71	42.2729
76.37648	3860.988	37.71383
76.43043	3869.446	41.30078
76.48438	3861.816	47.2985
76.53832	3864.369	43.004
76.59227	3866.502	37.39711
76.64622	3868.459	41.95846
76.70016	3872.671	44.37849
76.75411	3871.68	41.01043
76.80806	3880.906	39.09475
76.86201	3874.909	42.74631
76.91595	3881.36	43.59504
76.9699	3875.497	39.24455
77.02385	3883.131	38.79045
77.0778	3882.285	40.95561
77.13175	3891.708	40.55302
77.1857	3887.706	43.91031
77.23965	3897.422	41.4952
77.29359	3887.162	38.77515
77.34754	3894.523	42.56684
77.40149	3880.455	35.28196
77.45544	3894.979	34.00373
77.50938	3888.889	39.04149
77.56333	3894.322	39.70444
77.61728	3887.108	36.49971
77.67123	3895.106	36.31407
77.72517	3896.328	43.03596
77.77912	3904.021	37.24985
77.83307	3894.596	38.68939
77.88702	3900.675	36.3145
77.94096	3894.756	34.92941
77.99491	3903.95	36.68767
78.04886	3893.671	42.30365
78.10281	3899.655	36.75833
78.15675	3895.3	32.19781
78.2107	3903.135	34.89261
78.26465	3907.988	34.55777
78.3186	3903.099	33.96756
78.37254	3907.735	35.79586
78.42649	3904.566	34.40625
78.48044	3909.294	36.4891
78.53439	3906.059	38.16201
78.58833	3915.277	41.32165
78.64228	3906.203	43.0062
78.69623	3916.884	37.26424
78.75018	3907.436	41.49614
78.80412	3919.086	42.81341
78.85807	3910.051	35.33538
78.91202	3917.323	33.08359
78.96597	3907.163	41.17749
79.01991	3914.612	36.91917
79.07386	3910.368	37.20465
79.12781	3915.665	38.71184
79.18176	3913.067	40.47596
79.2357	3914.963	39.78745
79.28966	3903.78	35.68045
79.34361	3914.547	39.47273
79.39755	3902.195	40.05421
79.4515	3913.908	42.79887
79.50545	3908.197	34.86445
79.55939	3916.036	33.924
79.61334	3906.771	36.44731
79.66729	3912.525	37.28421
79.72124	3902.526	36.94856
79.77518	3911.971	37.9187
79.82913	3901.074	34.11229
79.88308	3906.52	37.91355
79.93703	3903.426	37.1391
79.99097	3905.531	37.21138
80.04492	3905.253	36.95484
80.09887	3912.497	42.34908
80.15282	3904.993	38.73855
80.20676	3913.314	38.61165
80.26071	3914.842	42.69699
80.31466	3915.642	40.61929
80.36861	3923.887	34.31182
80.42255	3916.809	33.68082
80.4765	3923.927	36.60094
80.53045	3913.586	42.0603
80.5844	3927.012	42.90646
80.63834	3912.87	40.09312
80.69229	3916.48	40.51588
80.74624	3911.641	42.36979
80.80019	3921.366	42.28062
80.85413	3911.367	41.64339
80.90808	3921.831	41.57143
80.96203	3914.331	44.57848
81.01598	3922.785	44.32858
81.06992	3917.41	43.07963
81.12387	3925.902	42.07126
81.17782	3915.332	48.51094
81.23177	3927.564	42.75428
81.28571	3918.299	45.76204
81.33966	3923.693	42.21473
81.39361	3913.861	44.79623
81.44756	3920.518	38.97829
81.5015	3916.221	38.49824
81.55546	3923.831	41.96013
81.60941	3919.242	40.36388
81.66335	3924.044	39.12372
81.7173	3907.848	45.99704
81.77125	3916.017	45.11171
81.8252	3915.507	41.55966
81.87914	3927.153	36.32388
81.93309	3915.847	39.96522
81.98704	3923.268	42.18713
82.04099	3911.942	38.90595
82.09493	3926.467	39.21651
82.14888	3927.543	41.57584
82.20283	3930.666	38.26202
82.25677	3926.595	43.51758
82.31072	3934.794	44.30158
82.36467	3934.603	42.87318
82.41862	3933.52	42.64159
82.47256	3931.511	44.38556
82.52651	3932.43	41.55116
82.58046	3940.693	38.27506
82.63441	3938.708	43.61235
82.68835	3945.455	45.49205
82.7423	3938.864	40.53689
82.79625	3948.429	41.26904
82.8502	3938.091	40.0095
82.90414	3947.7	38.18635
82.95809	3937.864	41.56658
83.01204	3944.459	40.25962
83.06599	3939.138	48.66296
83.11993	3953.121	46.82722
83.17388	3938.496	45.0762
83.22783	3948.415	45.91194
83.28178	3941.648	40.31707
83.33572	3952.809	40.15833
83.38967	3937.515	44.42872
83.44362	3948.01	44.63485
83.49757	3943.267	44.60282
83.55151	3948.414	44.93102
83.60546	3946.27	40.75145
83.65941	3954.821	37.88909
83.71336	3943.603	39.59114
83.76731	3953.761	40.36414
83.82126	3940.974	39.72488
83.87521	3948.386	42.18305
83.92915	3937.796	47.80785
83.9831	3953.453	45.65618
84.03705	3940.973	39.75675
84.091	3950.15	43.4075
84.14494	3935.775	40.57814
84.19889	3942.05	42.93897
84.25284	3933.238	43.85176
84.30679	3940.818	40.09288
84.36073	3938.292	42.48547
84.41468	3941.254	43.10493
84.46863	3929.175	46.24167
84.52258	3940.087	42.38956
84.57652	3924.855	38.61873
84.63047	3936.588	41.13506
84.68442	3926.31	42.5191
84.73837	3936.156	44.54959
84.79231	3937.378	46.42868
84.84626	3935.432	47.78717
84.90021	3934.571	46.91828
84.95415	3931.278	43.53172
85.0081	3942.996	40.48032
85.06205	3938.406	44.99543
85.116	3942.495	48.31561
85.16994	3925.893	44.34596
85.22389	3931.251	40.99462
85.27784	3921.461	40.7581
85.33179	3928.367	34.26379
85.38573	3921.679	42.50278
85.43968	3930.677	45.25664
85.49363	3916.743	42.98752
85.54758	3926.201	39.73076
85.60152	3908.225	45.01459
85.65547	3914.839	46.47035
85.70942	3904.147	44.33143
85.76337	3908.339	46.21008
85.81731	3904.136	48.8236
85.87126	3918.159	46.18035
85.92521	3901.851	42.71704
85.97916	3906.03	43.32042
86.03311	3890.913	43.44112
86.08706	3904.505	42.24155
86.14101	3888.352	45.81034
86.19495	3893.309	44.82405
86.2489	3883.504	46.48587
86.30285	3888.888	45.21242
86.3568	3872.687	48.2736
86.41074	3877.488	43.14467
86.46469	3873.378	49.03309
86.51864	3875.306	45.2149
86.57259	3866.63	54.23611
86.62653	3876.709	49.34697
86.68048	3859.643	43.72578
86.73443	3866.539	38.89017
86.78838	3848.395	43.93578
86.84232	3856.441	42.9937
86.89627	3846.263	47.63785
86.95022	3852.892	48.39587
87.00417	3840.924	41.16041
87.05811	3845.802	44.19076
87.11206	3829.536	47.8242
87.16601	3834.998	48.74385
87.21996	3821.621	47.20117
87.2739	3830.163	41.20639
87.32785	3822.719	44.73754
87.3818	3828.273	44.61311
87.43575	3816.469	43.33216
87.48969	3821.463	44.17282
87.54364	3811.398	45.50708
87.59759	3807.328	48.97998
87.65154	3801.019	48.58323
87.70548	3800.475	45.55507
87.75943	3798.273	47.14262
87.81338	3794.611	49.23352
87.86732	3795.451	49.83039
87.92127	3791.553	48.43988
87.97522	3795.843	45.17816
88.02917	3781.001	48.85139
88.08311	3779.097	47.09534
88.13706	3772.836	47.2402
88.19102	3784.243	46.1912
88.24496	3767.623	49.22239
88.29891	3775.607	43.26921
88.35286	3754.575	48.5459
88.40681	3758.202	51.23305
88.46075	3744.804	55.00448
88.5147	3749.92	53.01484
88.56865	3739.797	50.56179
88.6226	3744.76	50.31846
88.67654	3732.979	49.55948
88.73049	3743.17	48.59729
88.78444	3731.965	44.68643
88.83839	3737.411	43.05642
88.89233	3723.948	47.53612
88.94628	3734.504	48.83745
89.00023	3714.81	52.16237
89.05418	3720.229	51.54185
89.10812	3703.114	48.60437
89.16207	3704.832	51.06728
89.21602	3693.025	48.87719
89.26997	3702.302	46.22721
89.32391	3689.296	48.55036
89.37786	3697.364	49.86969
89.43181	3679.186	46.99391
89.48576	3683.796	47.99471
89.5397	3668.425	48.28494
89.59365	3673.122	48.98973
89.6476	3665.295	43.96663
89.70155	3668.696	39.78754
89.75549	3652.315	47.39668
89.80944	3659.914	48.66018
89.86339	3649.08	49.20774
89.91734	3653.847	48.51949
89.97128	3639.502	51.92914
90.02523	3641.789	48.65117
90.07918	3629.71	47.14107
90.13313	3632.961	49.30205
90.18707	3618.718	59.37751
90.24102	3622.802	58.90561
90.29497	3612.553	46.89308
90.34892	3616.082	46.55036
90.40287	3604.865	45.83395
90.45682	3611.436	46.47498
90.51077	3597.239	51.14774
90.56471	3600.382	49.81058
90.61866	3591.059	48.22898
90.67261	3597.468	51.8639
90.72655	3578.774	49.3938
90.7805	3579.682	53.89409
90.83445	3564.463	51.57458
90.8884	3572.912	52.5219
90.94234	3562.824	49.91673
90.99629	3571.622	52.05783
91.05024	3559.018	50.49477
91.10419	3559.886	54.28896
91.15813	3554.907	56.86547
91.21208	3552.813	58.96402
91.26603	3545.83	56.27156
91.31998	3541.801	52.2439
91.37392	3542.19	52.64627
91.42787	3532.48	55.86947
91.48182	3535.898	57.69639
91.53577	3521.946	51.95724
91.58971	3524.849	48.94812
91.64366	3511.988	57.70369
91.69761	3521.365	56.04279
91.75156	3503.853	52.14217
91.8055	3510.662	52.26421
91.85945	3497.618	53.55706
91.9134	3502.826	49.17025
91.96735	3483.459	56.02647
92.02129	3493.772	54.44326
92.07524	3479.537	55.19206
92.12919	3479.373	57.56525
92.18314	3467.091	57.75569
92.23708	3473.642	54.97217
92.29103	3463.579	60.67185
92.34498	3469.245	55.84785
92.39893	3457.479	58.41822
92.45287	3459.844	58.23946
92.50682	3451.962	57.59926
92.56077	3452.256	55.98663
92.61472	3437.124	50.50498
92.66867	3443.486	54.47295
92.72262	3427.716	53.79737
92.77657	3432.708	53.05195
92.83051	3417.375	58.39477
92.88446	3424.03	53.89972
92.93841	3413.875	54.38546
92.99236	3418.051	51.97914
93.0463	3400.785	58.09533
93.10025	3403.919	56.34415
93.1542	3391.897	51.18717
93.20815	3395.814	51.50642
93.26209	3381.261	54.85098
93.31604	3384.002	55.08739
93.36999	3372.161	56.20236
93.42393	3378.548	54.2434
93.47788	3363.022	57.91776
93.53183	3367.516	61.82518
93.58578	3358.064	60.54536
93.63972	3363.055	59.20844
93.69367	3346.419	53.40969
93.74762	3350.739	51.59578
93.80157	3338.665	54.30283
93.85551	3342.03	60.19547
93.90946	3328.444	57.36463
93.96341	3335.6	57.3827
94.01736	3323.575	58.51888
94.0713	3328.453	55.48504
94.12525	3315.979	57.14744
94.1792	3327.169	59.2957
94.23315	3311.324	56.84658
94.28709	3310.638	53.98873
94.34104	3297.328	56.81175
94.39499	3296.264	59.77642
94.44894	3289.863	54.98436
94.50288	3281.178	58.32185
94.55683	3287.531	55.99979
94.61078	3275.026	57.45021
94.66473	3262.501	56.57907
94.71867	3277.568	58.75436
94.77262	3272.486	51.80555
94.82658	3263.005	52.3372
94.88052	3258.426	56.60322
94.93447	3251.214	54.54615
94.98842	3243.47	54.26435
