T[Â°C]	330nm [counts / mm]	S.D.
19.99944	7952.418	29.65825
20.05342	7937.805	28.90214
20.10741	7934.917	33.69225
20.1614	7932.26	32.43868
20.21539	7932.305	33.68089
20.26938	7925.064	32.50687
20.32337	7913.883	23.78348
20.37736	7908.33	25.08356
20.43135	7902.16	29.69871
20.48534	7891.249	29.0128
20.53933	7885.064	23.06028
20.59332	7885.847	31.01045
20.64731	7879.057	25.64463
20.7013	7869.596	33.83352
20.75529	7861.742	25.98196
20.80928	7860.457	25.16421
20.86327	7854.314	35.52914
20.91726	7841.184	24.46121
20.97124	7840.122	37.69674
21.02523	7833.918	36.28988
21.07922	7818.109	34.80988
21.13321	7817.35	28.40847
21.1872	7806.726	22.13238
21.24119	7800.901	33.50253
21.29518	7796.742	35.07534
21.34917	7799.717	32.86791
21.40316	7794.154	42.13274
21.45715	7780.104	29.16692
21.51114	7766.262	32.31367
21.56513	7780.577	26.47857
21.61912	7755.606	25.11722
21.67311	7762.638	33.01865
21.7271	7755.496	29.3178
21.78109	7742.813	14.10538
21.83508	7738.441	38.98173
21.88906	7737.603	23.34427
21.94305	7725.127	33.41557
21.99704	7725.996	29.02119
22.05103	7713.648	26.97628
22.10502	7713.319	26.17159
22.15901	7702.664	14.56255
22.213	7699.874	17.21487
22.26699	7683.468	24.81527
22.32098	7680.983	27.93373
22.37497	7678.065	20.1843
22.42896	7674.221	19.33628
22.48295	7666.588	15.71382
22.53694	7669.524	14.38996
22.59093	7661.101	21.83964
22.64492	7657.642	17.40744
22.69891	7645.322	20.96863
22.7529	7640.216	17.39962
22.80688	7635.547	24.02742
22.86087	7630.886	27.30744
22.91486	7626.771	25.66547
22.96885	7619.807	27.47527
23.02284	7615.092	21.61227
23.07683	7608.275	30.69737
23.13082	7602.679	29.24501
23.18481	7597.3	20.02784
23.2388	7585.932	30.47275
23.29279	7577.59	35.43241
23.34678	7571.324	28.98395
23.40077	7566.046	24.46344
23.45476	7565.693	30.92387
23.50875	7557.024	31.04953
23.56274	7550.991	25.41334
23.61673	7550.395	29.62842
23.67072	7542.367	30.71098
23.72471	7535.521	26.12338
23.7787	7527.436	23.58619
23.83269	7522.479	22.6153
23.88667	7518.555	27.1253
23.94066	7516.087	29.29661
23.99465	7512.203	28.63038
24.04864	7501.001	31.29758
24.10263	7496.885	29.37624
24.15662	7489.972	19.00547
24.21061	7485.119	21.79211
24.2646	7476.16	25.98792
24.31859	7470.597	27.37479
24.37258	7465.231	25.80201
24.42657	7460.45	29.76344
24.48056	7453.682	18.48195
24.53455	7449.383	20.68362
24.58854	7446.556	24.15261
24.64253	7442.36	27.94369
24.69652	7444.958	25.06899
24.75051	7425.675	27.44982
24.80449	7425.484	33.3526
24.85848	7414.349	29.66185
24.91247	7405.849	28.30279
24.96646	7402.206	23.752
25.02045	7390.192	29.58818
25.07444	7390.298	33.08935
25.12843	7385.664	26.88054
25.18242	7376.093	37.10535
25.23641	7373.038	31.03697
25.2904	7371.356	33.03392
25.34439	7361.052	27.50326
25.39838	7358.638	31.97
25.45237	7350.367	29.89837
25.50636	7343.501	32.94525
25.56035	7340.322	26.75422
25.61434	7340.316	19.84406
25.66833	7331.595	28.89379
25.72231	7331.449	26.59554
25.7763	7314.585	16.85398
25.83029	7310.261	26.07077
25.88428	7302.584	29.62518
25.93827	7293.211	16.08554
25.99226	7294.729	18.45193
26.04625	7282.418	18.19979
26.10024	7276.96	15.91693
26.15423	7270.072	27.94571
26.20822	7266.911	20.73514
26.26221	7265.766	17.36019
26.3162	7250.641	15.91573
26.37019	7256.27	11.40644
26.42418	7244.357	20.26729
26.47817	7245.251	20.65328
26.53216	7240.493	25.93973
26.58615	7231.825	17.14091
26.64013	7226.663	27.67424
26.69412	7227.566	18.61473
26.74811	7221.503	15.07453
26.8021	7210.536	15.45887
26.85609	7205.656	22.01195
26.91008	7196.019	22.21883
26.96407	7193.004	19.37154
27.01806	7187.627	21.74118
27.07205	7180.768	25.27102
27.12604	7174.707	29.14567
27.18003	7168.716	24.46911
27.23402	7161.343	28.68109
27.28801	7155.354	30.51483
27.342	7151.087	30.37717
27.39599	7143.841	28.18351
27.44998	7140.186	25.35254
27.50397	7135.654	23.02459
27.55795	7133.834	28.58014
27.61194	7127.776	28.03115
27.66593	7116.302	18.41598
27.71992	7111.177	21.50076
27.77391	7104.559	22.65117
27.8279	7099.364	18.91061
27.88189	7092.552	24.28869
27.93588	7084.422	29.3824
27.98987	7082.065	24.41768
28.04386	7076.722	33.45924
28.09785	7075.267	32.12074
28.15184	7067.026	28.29525
28.20583	7063.655	30.72636
28.25982	7058.978	31.99733
28.31381	7060.64	20.45211
28.3678	7052.758	24.88384
28.42179	7050.178	26.52031
28.47577	7041.891	26.50719
28.52976	7026.307	20.3059
28.58375	7023.595	34.23954
28.63774	7015.776	32.03971
28.69173	7010.42	27.62223
28.74572	7009.802	28.79775
28.79971	7008.262	22.03993
28.8537	7001.199	23.86664
28.90769	6994.776	26.10828
28.96168	6981.758	22.19237
29.01567	6980.033	18.69601
29.06966	6981.897	17.20784
29.12365	6971.06	22.05966
29.17764	6966.304	30.19226
29.23163	6962.947	25.53631
29.28562	6957.651	22.03891
29.33961	6948.812	25.16626
29.3936	6943.46	22.04487
29.44759	6939.573	25.17765
29.50158	6939.93	20.77971
29.55556	6928.112	21.04877
29.60955	6924.612	17.27316
29.66354	6924.083	17.9506
29.71753	6922.294	16.99984
29.77152	6902.871	16.00654
29.82551	6904.057	9.966192
29.8795	6903.944	15.35614
29.93349	6889.306	15.20487
29.98748	6889.946	15.17731
30.04147	6880.886	22.45259
30.09546	6869.144	24.50393
30.14945	6876.035	22.13146
30.20344	6865.399	21.60795
30.25743	6860.688	29.67878
30.31142	6854.447	24.5991
30.36541	6852.709	20.51766
30.4194	6844.405	27.45336
30.47338	6837.022	26.9164
30.52737	6832.271	20.73156
30.58136	6828.954	27.54724
30.63535	6822.19	27.27742
30.68934	6816.141	28.93791
30.74333	6804.798	24.98942
30.79732	6806.993	23.77006
30.85131	6799.902	22.68108
30.9053	6793.033	27.89877
30.95929	6786.292	21.08817
31.01328	6781.656	19.47309
31.06727	6783.235	27.57556
31.12126	6775.959	22.85457
31.17525	6768.028	21.96056
31.22924	6764.83	23.25823
31.28323	6759.759	25.4818
31.33722	6753.653	21.22725
31.3912	6745.588	21.1744
31.44519	6739.882	19.52234
31.49918	6739.761	20.07303
31.55317	6732.647	21.25607
31.60716	6726.675	25.76168
31.66115	6722.008	25.50793
31.71514	6714.451	19.61937
31.76913	6711.493	24.2822
31.82312	6702.613	23.13961
31.87711	6694.883	23.59709
31.9311	6695.648	22.80094
31.98509	6691.615	16.603
32.03908	6687.595	20.32105
32.09307	6682.292	20.50499
32.14706	6676.402	16.80343
32.20105	6671	22.24042
32.25504	6668.135	25.1417
32.30902	6659.067	27.61378
32.36301	6650.364	26.61914
32.417	6646.546	26.39798
32.47099	6638.007	24.96091
32.52498	6633.101	32.24245
32.57897	6628.474	29.37723
32.63296	6625.335	23.89018
32.68695	6618.284	22.22247
32.74094	6617.273	22.98006
32.79493	6612.374	23.71346
32.84892	6602.217	26.11705
32.90291	6599.156	19.36249
32.9569	6594.137	21.03336
33.01089	6593.712	25.4346
33.06488	6585.779	26.53101
33.11887	6578.806	22.14318
33.17286	6570.395	23.3149
33.22684	6563.044	8.690228
33.28083	6560.716	22.6327
33.33482	6561.787	16.31776
33.38881	6546.135	19.39276
33.4428	6545.84	17.73881
33.49679	6544.295	18.69263
33.55078	6538.422	9.233461
33.60477	6529.067	15.7051
33.65876	6532.17	16.84502
33.71275	6534.658	8.993279
33.76674	6519.911	17.04464
33.82073	6517.565	14.65451
33.87472	6506.243	22.77067
33.92871	6499.839	14.96687
33.9827	6494.685	18.40046
34.03669	6493.805	20.48074
34.09068	6491.278	16.1193
34.14466	6476.637	13.14222
34.19865	6477.86	15.95423
34.25264	6469.052	20.1544
34.30663	6468.716	23.41921
34.36062	6463.108	15.1454
34.41461	6455.14	21.81728
34.4686	6445.353	20.41587
34.52259	6451.724	24.36232
34.57658	6439.046	23.37329
34.63057	6437.459	23.40433
34.68456	6428.089	16.82528
34.73855	6420.669	22.41787
34.79254	6423.577	26.90928
34.84653	6414.39	23.03844
34.90052	6406.926	26.26376
34.95451	6405.481	21.67057
35.0085	6398.815	16.9569
35.06248	6399.312	14.75424
35.11647	6397.009	15.37763
35.17046	6389.604	20.61999
35.22445	6378.947	21.22989
35.27844	6372.982	14.83166
35.33243	6367.27	11.08044
35.38642	6362.547	20.57675
35.44041	6361.473	23.23297
35.4944	6358.974	15.35369
35.54839	6347.489	15.5401
35.60238	6343.681	23.15704
35.65637	6343.295	21.97903
35.71036	6333.57	17.78312
35.76435	6326.021	17.14435
35.81834	6320.284	18.92548
35.87233	6318.656	24.54499
35.92632	6313.339	26.43998
35.9803	6303.158	21.89799
36.03429	6293.879	25.59703
36.08828	6290.368	24.58928
36.14227	6288.775	17.77147
36.19626	6288.712	11.51977
36.25025	6286.283	7.951674
36.30424	6274.402	8.200386
36.35823	6263.545	13.16309
36.41222	6261.364	18.79811
36.46621	6261.931	20.41299
36.5202	6261.383	20.79703
36.57419	6253.807	17.94083
36.62818	6251.258	22.34478
36.68217	6244.333	23.02737
36.73616	6241.457	18.41527
36.79015	6230.109	9.177938
36.84414	6226.192	11.95854
36.89812	6217.004	24.85072
36.95211	6217.49	12.25673
37.0061	6211.112	15.70563
37.06009	6206.872	11.22306
37.11408	6199.731	11.28065
37.16807	6199.898	17.53802
37.22206	6193.269	17.42353
37.27605	6189.554	21.03724
37.33004	6179.466	7.476181
37.38403	6178.989	17.8019
37.43802	6171.477	9.104405
37.49201	6174.471	3.080104
37.546	6165.302	19.65669
37.59999	6158.325	10.01802
37.65398	6143.903	6.477999
37.70797	6149.61	16.05966
37.76196	6133.728	6.477643
37.81594	6135.914	23.78795
37.86993	6134.567	13.04361
37.92392	6137.835	14.74744
37.97791	6129.824	15.1648
38.0319	6128.68	9.623416
38.08589	6114.772	13.71809
38.13988	6111.536	23.1672
38.19387	6110.699	24.38139
38.24786	6097.548	23.79725
38.30185	6095.58	27.14522
38.35584	6094.609	14.23668
38.40983	6084.071	6.609092
38.46382	6085.18	13.66493
38.51781	6076.943	15.02867
38.5718	6075.845	13.53104
38.62579	6071.229	16.54217
38.67978	6062.432	17.08694
38.73376	6047.129	22.34864
38.78776	6048.659	22.61199
38.84175	6044.452	20.49303
38.89574	6044.141	21.99244
38.94973	6038.03	21.69502
39.00372	6030.273	13.07233
39.0577	6019.583	15.92709
39.11169	6019.077	14.97764
39.16568	6021.651	14.1245
39.21967	6016.319	14.59555
39.27366	6008.3	17.03909
39.32765	6002.83	18.35509
39.38164	5997.303	16.05947
39.43563	5989.306	16.07921
39.48962	5982.18	13.92209
39.54361	5980.899	12.28195
39.5976	5975.259	16.67016
39.65159	5967.982	18.50745
39.70558	5966.407	17.8194
39.75957	5959.547	18.11751
39.81356	5952.587	15.78958
39.86755	5951.876	12.69678
39.92154	5947.794	14.31273
39.97552	5937.747	17.05896
40.02951	5932.924	15.56437
40.0835	5933.82	8.767869
40.13749	5940.834	12.40113
40.19148	5933.728	10.33454
40.24547	5928.368	14.00411
40.29946	5916.555	17.56183
40.35345	5909.684	16.05852
40.40744	5901.375	6.015476
40.46143	5899.567	4.789278
40.51542	5891.92	6.883886
40.56941	5893.356	0.2889774
40.6234	5886.371	9.729604
40.67739	5883.486	10.63375
40.73138	5878.074	6.814187
40.78537	5874.665	5.981027
40.83936	5868.844	13.61609
40.89334	5865.509	9.561526
40.94733	5848.031	9.909097
41.00132	5853.272	13.83861
41.05531	5848.644	11.44197
41.1093	5841.046	21.61178
41.16329	5841.997	14.1164
41.21728	5836.979	14.38188
41.27127	5825.63	21.11171
41.32526	5829.119	16.79903
41.37925	5819.707	7.190261
41.43324	5815.943	10.33764
41.48723	5806.773	11.74602
41.54122	5804.312	11.97388
41.59521	5798.478	11.55058
41.6492	5801.338	23.46516
41.70319	5791.284	22.6228
41.75718	5785.754	19.39064
41.81116	5776.215	21.89777
41.86515	5781.554	17.32715
41.91914	5770.012	21.07485
41.97313	5773.976	23.53856
42.02712	5762.873	25.08513
42.08111	5764.799	22.87173
42.1351	5760.37	20.94685
42.18909	5750.778	13.53351
42.24308	5744.241	18.82958
42.29707	5749.09	16.89663
42.35106	5740.811	15.61505
42.40505	5736.412	16.64378
42.45904	5725.153	16.46304
42.51303	5720.991	13.19255
42.56702	5711.848	11.87266
42.62101	5709.458	15.74073
42.675	5707.786	20.46186
42.72898	5703.435	14.34941
42.78297	5704.7	10.63524
42.83696	5699.571	10.73072
42.89095	5690.389	11.47976
42.94494	5689.441	12.96158
42.99893	5681.907	16.71001
43.05292	5677.19	15.29586
43.10691	5674.884	16.90681
43.1609	5670.786	18.98297
43.21489	5663.828	17.10827
43.26888	5659.313	16.17692
43.32287	5657.831	18.73817
43.37686	5650.77	15.78967
43.43085	5642.497	16.40087
43.48484	5634.676	23.22191
43.53883	5633.893	22.49419
43.59282	5632.055	23.11006
43.6468	5622.183	18.25607
43.70079	5614.035	18.03816
43.75478	5619.187	19.38384
43.80877	5610.788	9.147612
43.86276	5604.337	5.085083
43.91675	5601.421	12.01922
43.97074	5597.978	15.08133
44.02473	5593.418	14.62198
44.07872	5588.308	13.98686
44.13271	5583.922	9.750612
44.1867	5584.12	14.55552
44.24069	5574.836	17.282
44.29468	5570.181	14.42921
44.34867	5563.7	12.26797
44.40266	5564.203	7.944334
44.45665	5554.223	20.16544
44.51064	5555.795	12.45124
44.56462	5541.651	12.45371
44.61861	5538.223	7.045578
44.6726	5546.046	9.084365
44.72659	5539.576	9.054513
44.78058	5526.485	12.67283
44.83457	5521.915	16.12163
44.88856	5522.143	14.67593
44.94255	5517.921	9.536732
44.99654	5516.664	4.079543
45.05053	5507.176	13.22368
45.10452	5502.25	16.59475
45.15851	5501.37	10.6621
45.2125	5492.608	13.55473
45.26649	5500.773	15.75159
45.32048	5480.87	9.674823
45.37447	5478.955	26.22006
45.42846	5468.395	10.90368
45.48244	5478.577	15.31392
45.53643	5456.197	11.82103
45.59042	5463.768	13.35076
45.64441	5456.695	9.850301
45.6984	5444.974	8.651322
45.75239	5449.36	15.58261
45.80638	5444.421	17.52016
45.86037	5439.759	16.27649
45.91436	5438.174	17.77616
45.96835	5425.328	6.844549
46.02234	5426.701	5.599851
46.07633	5422.309	10.86026
46.13032	5420.036	13.39439
46.18431	5409.977	14.16645
46.2383	5412.84	11.90802
46.29229	5403.779	12.3195
46.34628	5399.041	15.68018
46.40026	5397.656	16.33969
46.45425	5391.905	13.70449
46.50824	5382.592	16.07239
46.56223	5382.604	17.33228
46.61622	5377.631	12.03432
46.67021	5373.647	9.112644
46.7242	5367.872	12.30994
46.77819	5363.271	14.53251
46.83218	5355.765	12.6651
46.88617	5353.865	9.676023
46.94016	5346.16	10.51301
46.99415	5343.036	17.49031
47.04814	5340.112	24.3805
47.10213	5336.065	18.127
47.15612	5331.509	13.77973
47.21011	5325.545	23.70737
47.2641	5320.71	22.09509
47.31808	5316.587	15.37682
47.37207	5313.018	14.09236
47.42606	5305.562	11.65426
47.48005	5299.838	14.74953
47.53404	5299.046	11.21372
47.58803	5299.733	10.39491
47.64202	5297.26	14.75291
47.69601	5291.333	10.85864
47.75	5288.751	14.67296
47.80399	5287.119	13.06169
47.85798	5278.681	15.14766
47.91197	5272.585	15.12908
47.96596	5262.084	9.79503
48.01995	5261.732	7.911322
48.07394	5256.041	6.119786
48.12793	5258.101	13.73028
48.18192	5245.631	7.400861
48.2359	5247.299	6.050139
48.28989	5243.781	8.719522
48.34388	5240.27	5.337707
48.39787	5230.17	11.58731
48.45186	5227.499	9.236117
48.50585	5218.153	7.513913
48.55984	5216.077	13.30901
48.61383	5211.271	13.56299
48.66782	5213.721	10.82482
48.72181	5207	8.062949
48.7758	5202.226	8.275384
48.82979	5188.324	18.62349
48.88378	5193.063	9.39796
48.93777	5191.884	19.27795
48.99176	5187.933	12.80995
49.04575	5177.254	6.689891
49.09974	5181.068	10.22108
49.15372	5166.559	13.43631
49.20771	5170.23	15.59892
49.2617	5159.035	7.545619
49.31569	5156.915	16.11647
49.36968	5147.177	12.17412
49.42367	5150.502	18.0453
49.47766	5146.385	19.86004
49.53165	5146.169	10.33712
49.58564	5135.724	11.55564
49.63963	5134.779	13.27022
49.69362	5129.343	21.27701
49.74761	5125.759	17.17813
49.8016	5120.99	17.43306
49.85559	5115.55	17.46609
49.90958	5107.519	9.723451
49.96357	5108.703	10.37761
50.01756	5103.835	15.2667
50.07154	5101.793	9.902852
50.12553	5096.899	5.909512
50.17952	5092.229	6.346476
50.23351	5084.75	9.299073
50.2875	5080.871	10.74732
50.34149	5076.786	8.312255
50.39548	5071.051	9.54738
50.44947	5064.015	12.51356
50.50346	5065.385	13.9388
50.55745	5062.625	18.65619
50.61144	5063.109	13.22326
50.66543	5059.552	14.49869
50.71942	5052.726	14.87081
50.77341	5045.758	10.19796
50.8274	5037.994	9.350737
50.88139	5034.583	12.03046
50.93538	5032.284	13.96609
50.98936	5028.32	12.88354
51.04335	5024.228	13.15281
51.09734	5020.504	12.42087
51.15133	5012.029	13.02277
51.20532	5008.832	14.04408
51.25932	5000.662	15.40824
51.3133	5000.087	21.36183
51.36729	4995.29	17.96176
51.42128	4995.607	13.09807
51.47527	4989.131	18.9789
51.52926	4988.044	12.75961
51.58325	4981.186	11.80929
51.63724	4978.854	16.41771
51.69123	4972.614	22.46646
51.74522	4976.691	15.81845
51.79921	4962.92	12.16265
51.8532	4958.426	13.53801
51.90719	4953.518	10.27972
51.96118	4954.592	5.807147
52.01517	4948.694	4.965392
52.06916	4950.671	16.29664
52.12315	4937.433	8.851058
52.17714	4936.395	8.710011
52.23112	4928.205	5.810651
52.28511	4929.573	8.941641
52.3391	4914.598	13.49684
52.39309	4911.975	11.81514
52.44708	4914.683	2.190403
52.50107	4912.99	7.395127
52.55506	4905.9	20.70738
52.60905	4905.258	18.08077
52.66304	4892.571	7.99283
52.71703	4893.268	11.06935
52.77102	4885.313	17.85246
52.82501	4895.661	5.291831
52.879	4884.326	15.98984
52.93299	4877.299	8.755671
52.98698	4866.247	14.81982
53.04097	4874.126	17.96192
53.09496	4863.089	13.82489
53.14894	4869.553	9.084815
53.20293	4853.834	17.6992
53.25692	4857.781	16.34337
53.31091	4842.612	13.35403
53.3649	4846.334	14.89644
53.41889	4839.029	8.958686
53.47288	4838.237	13.30058
53.52687	4833.472	11.67044
53.58086	4834.662	11.9695
53.63485	4825.957	12.47377
53.68884	4819.661	11.27145
53.74283	4819.678	21.82726
53.79682	4816.892	18.90146
53.85081	4812.021	17.006
53.9048	4809.792	11.69485
53.95879	4798.528	13.1677
54.01278	4799.994	9.853061
54.06676	4794.92	11.45265
54.12075	4788.457	18.08981
54.17474	4782.408	14.97673
54.22873	4781.224	10.12367
54.28272	4778.43	7.908613
54.33671	4773.132	11.81493
54.3907	4768.927	13.17555
54.44469	4768.296	17.25957
54.49868	4762.356	19.85135
54.55267	4760.949	15.11276
54.60666	4757.205	15.255
54.66065	4751.969	13.87292
54.71464	4745.816	11.74893
54.76863	4737.223	15.86872
54.82262	4738.954	16.52714
54.87661	4733.822	11.88638
54.9306	4727.003	8.718409
54.98458	4725.744	9.940642
55.03857	4722.623	11.23363
55.09256	4718.269	15.93466
55.14655	4713.8	14.64411
55.20054	4706.355	10.78454
55.25453	4705.708	13.99271
55.30852	4700.042	14.2471
55.36251	4697.986	10.13434
55.4165	4690.109	12.04772
55.47049	4691.845	8.452867
55.52448	4685.681	7.028522
55.57847	4685.36	7.908745
55.63246	4676.398	13.42284
55.68645	4677.006	16.50141
55.74044	4665.877	13.19589
55.79443	4665.825	9.219029
55.84842	4657.301	10.58067
55.9024	4660.196	7.336288
55.95639	4648.984	11.50369
56.01038	4650.986	3.601993
56.06437	4636.868	11.42298
56.11836	4644.974	13.4816
56.17235	4633.619	8.320609
56.22634	4643.321	8.780768
56.28033	4625.958	5.12842
56.33432	4629.347	5.244049
56.38831	4612.026	9.459931
56.4423	4622.885	6.699531
56.49629	4609.87	4.969728
56.55028	4611.994	2.893886
56.60427	4608.373	21.04579
56.65826	4606.286	15.69283
56.71225	4595.986	12.78898
56.76624	4596.248	8.461756
56.82022	4586.563	6.739868
56.87421	4590.533	14.74815
56.9282	4583.183	6.830239
56.98219	4581.484	5.219789
57.03618	4566.886	6.919537
57.09017	4571.438	8.730439
57.14416	4563.924	11.94996
57.19815	4567.073	12.72556
57.25214	4560.113	13.58451
57.30613	4554.903	12.10143
57.36012	4548.493	16.68288
57.41411	4556.453	14.83249
57.4681	4546.778	14.29903
57.52209	4546.804	13.1962
57.57608	4533.888	17.14701
57.63007	4531.626	15.06504
57.68406	4528.063	14.35372
57.73804	4527.266	10.6652
57.79203	4522	8.796716
57.84602	4521.211	6.855078
57.90001	4515.476	8.985688
57.954	4514.002	7.317358
58.00799	4509.1	5.350069
58.06198	4503.617	3.817857
58.11597	4499.883	5.779962
58.16996	4495.035	10.46479
58.22395	4497.18	14.02309
58.27794	4489.922	15.74669
58.33193	4489.716	10.57996
58.38592	4480.293	10.57009
58.43991	4482.808	12.87669
58.4939	4474.151	16.40786
58.54789	4476.143	14.99846
58.60188	4464.256	16.88478
58.65586	4471.687	12.61514
58.70985	4460.912	8.986975
58.76384	4456.73	12.28521
58.81783	4449.994	10.20653
58.87182	4448.635	5.650068
58.92581	4447.13	20.2983
58.9798	4443.239	17.35415
59.03379	4432.26	12.8656
59.08778	4434.967	15.77356
59.14177	4421.657	14.96605
59.19576	4427.487	9.379078
59.24975	4415.989	16.09361
59.30374	4416.727	16.093
59.35773	4410.175	21.64931
59.41172	4412.166	17.94817
59.46571	4395.445	9.630692
59.5197	4407.33	12.31488
59.57368	4394.835	9.836259
59.62767	4399.187	6.467577
59.68166	4391.441	12.52237
59.73565	4393.485	10.45884
59.78964	4385.205	6.283903
59.84363	4380.066	8.637899
59.89762	4376.032	6.386958
59.95161	4376.512	8.539848
60.0056	4367.679	5.452534
60.05959	4365.269	6.026554
60.11358	4363.581	12.41515
60.16757	4360.029	9.722437
60.22156	4355.617	5.565128
60.27555	4349.898	6.836827
60.32954	4351.486	5.986435
60.38353	4345.42	10.37702
60.43752	4344.948	6.780971
60.4915	4341.878	11.84697
60.54549	4331.147	11.5489
60.59948	4331.579	6.063715
60.65347	4331.554	8.057631
60.70746	4325.763	7.290029
60.76145	4323.399	7.758358
60.81544	4315.234	4.027441
60.86943	4318.277	8.000314
60.92342	4305.596	13.85213
60.97741	4315.701	6.318089
61.0314	4300.042	13.647
61.08539	4303.898	8.827146
61.13938	4294.886	17.69676
61.19337	4298.317	18.38859
61.24736	4285.065	17.74234
61.30135	4292.446	14.59371
61.35534	4283.725	15.32229
61.40932	4283.486	14.09679
61.46331	4273.762	13.07928
61.5173	4274.307	10.43147
61.57129	4266.841	11.26393
61.62528	4265.421	9.605577
61.67927	4263.986	7.10434
61.73326	4260.327	7.465901
61.78725	4256.069	11.79487
61.84124	4254.647	16.64367
61.89523	4251.775	16.17109
61.94922	4249.975	14.62521
62.00321	4245.133	9.813458
62.0572	4240.73	6.558438
62.11119	4239.627	8.086422
62.16518	4234.08	8.963154
62.21917	4236.361	6.769573
62.27316	4229.496	9.003218
62.32714	4222.451	8.615523
62.38113	4220.483	9.861742
62.43512	4221.699	10.83093
62.48911	4214.355	10.48767
62.5431	4211.819	9.920074
62.59709	4205.935	10.34514
62.65108	4210.588	10.39386
62.70507	4204.971	8.864532
62.75906	4209.762	11.3853
62.81305	4196.752	14.19703
62.86704	4194.626	10.21908
62.92103	4188.268	10.81862
62.97502	4193.331	11.08595
63.02901	4183.147	12.51409
63.083	4183.825	11.27789
63.13699	4178.275	17.09049
63.19098	4184.756	9.85175
63.24496	4176.576	13.78564
63.29895	4177.574	13.27758
63.35294	4168.361	13.41996
63.40693	4169.918	14.67809
63.46092	4166.966	16.45748
63.51491	4170.95	8.354039
63.5689	4157.79	7.93177
63.62289	4166.639	12.7663
63.67688	4156.467	15.62426
63.73087	4158.35	17.16098
63.78486	4147.911	15.91369
63.83885	4156.832	14.8006
63.89284	4147.38	14.1598
63.94683	4151.98	14.09078
64.00082	4144.681	9.171734
64.05481	4148.047	4.27663
64.1088	4135.891	11.45938
64.16279	4143.952	7.711334
64.21677	4134.4	12.09408
64.27077	4141.857	7.304051
64.32475	4134.182	5.466102
64.37875	4134.11	3.472522
64.43273	4129.005	9.044381
64.48672	4134.893	4.108468
64.54071	4132.051	4.335702
64.5947	4128.168	5.559269
64.64869	4124.468	4.563174
64.70268	4127.272	9.875706
64.75667	4124.438	11.22658
64.81066	4124.742	10.35509
64.86465	4124.893	9.436558
64.91864	4123.759	6.707259
64.97263	4118.855	7.079602
65.02662	4122.062	8.6704
65.0806	4128.214	9.213022
65.1346	4125.726	10.12099
65.18858	4124.272	11.41339
65.24258	4121.696	10.96374
65.29656	4122.961	12.31157
65.35056	4123.969	10.59605
65.40454	4127.757	9.847127
65.45853	4124.897	12.60445
65.51252	4122.34	11.46189
65.56651	4120.224	12.00316
65.6205	4123.394	9.490967
65.67449	4120.24	10.51566
65.72848	4127.927	12.90738
65.78247	4118.104	10.18453
65.83646	4125.689	12.93799
65.89045	4126.897	10.19683
65.94444	4131.964	12.26664
65.99843	4130.193	7.945093
66.05241	4139.357	14.47063
66.10641	4137.289	17.44642
66.16039	4139.262	9.68394
66.21439	4137.779	8.124556
66.26837	4147.975	11.42178
66.32236	4142.792	13.82368
66.37635	4154.723	11.77543
66.43034	4153.248	16.16619
66.48433	4166.576	15.25705
66.53832	4156.125	1.95936
66.59231	4170.908	4.952179
66.6463	4168.491	12.45263
66.70029	4177.179	10.63686
66.75428	4176.543	11.40711
66.80827	4185.777	9.431184
66.86226	4181.337	14.089
66.91624	4195.438	12.13643
66.97024	4197.927	17.8051
67.02422	4207.473	12.44654
67.07822	4211.823	13.61816
67.1322	4218.506	19.96966
67.1862	4220.014	9.070685
67.24018	4237.838	9.928066
67.29417	4241.148	14.27501
67.34816	4257.919	10.9549
67.40215	4255.63	11.96017
67.45614	4264.874	12.13306
67.51013	4273.922	13.36941
67.56412	4277.44	16.32565
67.61811	4291.806	19.63822
67.6721	4306.194	11.70227
67.72609	4311.989	12.46278
67.78008	4332.501	17.23958
67.83407	4338.776	12.66887
67.88805	4350.498	16.73523
67.94205	4359.253	14.58438
67.99603	4374.028	10.65516
68.05003	4385.128	10.70922
68.10401	4400.542	10.96399
68.158	4418.431	10.51236
68.21199	4430.697	11.34902
68.26598	4437.916	12.56858
68.31997	4459.43	15.35487
68.37396	4477.525	10.97812
68.42795	4493.915	8.390133
68.48194	4515.962	13.44076
68.53593	4534.584	13.66309
68.58992	4554.013	14.295
68.64391	4572.16	15.60106
68.6979	4594.177	12.44483
68.75188	4609.268	11.51969
68.80588	4636.547	9.281689
68.85986	4654.404	12.06332
68.91386	4680.764	13.75516
68.96784	4700.025	19.07418
69.02184	4730.143	14.80935
69.07582	4746.574	10.90635
69.12981	4782.303	13.34436
69.1838	4797.993	13.12028
69.23779	4831.17	13.53281
69.29178	4848.262	18.98796
69.34577	4889.408	17.47988
69.39976	4912.573	15.16596
69.45375	4950.025	18.44643
69.50774	4982.568	17.40134
69.56173	5015.916	15.04465
69.61572	5042.581	15.35373
69.66971	5084.316	19.0243
69.72369	5105.421	21.53262
69.77769	5157.159	15.56977
69.83167	5188.358	16.79472
69.88567	5234.959	12.01049
69.93965	5258.611	19.95714
69.99364	5320.522	12.8
70.04764	5349.638	15.61313
70.10162	5402.4	18.32808
70.15562	5432.484	32.07049
70.2096	5490.899	22.50484
70.2636	5526.376	22.9691
70.31758	5595.867	36.38391
70.37157	5622.065	22.80968
70.42556	5698.033	16.65796
70.47955	5737.314	30.05412
70.53354	5805.558	22.14922
70.58753	5854.334	24.74107
70.64152	5918.503	21.27196
70.69551	5970.144	29.5864
70.7495	6043.149	27.70001
70.80349	6094.737	25.23548
70.85748	6164.457	22.80605
70.91147	6219.318	28.52427
70.96545	6281.958	25.97351
71.01945	6339.985	29.74714
71.07343	6404.833	27.08337
71.12743	6456.996	24.33303
71.18141	6518.503	23.73257
71.2354	6572.46	24.34685
71.28939	6628.758	22.59365
71.34338	6677.446	28.61435
71.39737	6738.489	26.65412
71.45136	6799.327	24.56655
71.50535	6853.715	29.33443
71.55934	6907.756	29.03386
71.61333	6959.306	29.95149
71.66732	7032.209	25.9911
71.72131	7095.275	30.95527
71.7753	7172.334	31.2001
71.82928	7228.947	25.95867
71.88328	7302.521	27.41805
71.93726	7348.057	32.52172
71.99126	7432.082	22.16443
72.04524	7475.194	37.50795
72.09924	7548.607	33.62148
72.15322	7591.607	37.79045
72.20721	7658.9	17.99153
72.2612	7710.529	32.67231
72.31519	7776.118	24.52852
72.36918	7808.717	29.63203
72.42317	7880.083	26.14657
72.47716	7902.912	30.44453
72.53115	7973.077	31.681
72.58514	7996.892	27.41437
72.63913	8069.091	28.63054
72.69312	8080.042	21.23812
72.74711	8144.826	18.79527
72.80109	8155.893	22.72668
72.85509	8238.923	23.26997
72.90907	8248.967	14.59536
72.96307	8299.955	20.19103
73.01705	8303.535	30.91356
73.07104	8354.029	18.61481
73.12503	8365.806	22.40998
73.17902	8410.281	24.7803
73.23301	8419.558	17.27863
73.287	8463.861	19.22952
73.34099	8476.789	19.91485
73.39498	8509.081	18.0706
73.44897	8524.948	12.50771
73.50296	8558.049	13.8923
73.55695	8557.742	17.87145
73.61094	8589.551	13.73307
73.66492	8599.897	10.66987
73.71892	8617.266	8.560915
73.7729	8630.022	16.50311
73.8269	8644.266	17.71072
73.88088	8652.914	21.66744
73.93488	8672.193	17.87705
73.98886	8689.869	10.04894
74.04285	8706.93	12.86292
74.09684	8720.58	16.15688
74.15083	8726.344	21.99951
74.20482	8741.329	19.04571
74.25881	8746.707	17.89026
74.3128	8760.134	2.901923
74.36679	8767.868	1.684262
74.42078	8784.207	17.88111
74.47477	8789.48	17.2145
74.52876	8809.361	12.58033
74.58275	8800.397	17.92663
74.63673	8827.323	20.46404
74.69073	8816.161	18.55947
74.74471	8838.297	23.18946
74.79871	8834.456	16.20976
74.85269	8855.016	7.069649
74.90668	8841.706	15.48128
74.96067	8861.478	18.58197
75.01466	8846.79	21.69841
75.06865	8873.733	26.91978
75.12264	8860.104	16.13537
75.17663	8887.264	19.7329
75.23062	8868.609	14.81555
75.28461	8908.367	24.94832
75.3386	8877.4	15.33349
75.39259	8914.016	11.5926
75.44658	8877.357	15.36932
75.50056	8923.989	20.48114
75.55456	8892.407	22.06584
75.60854	8927.182	22.15885
75.66254	8910.139	22.65865
75.71652	8930.832	23.99578
75.77052	8905.153	26.68709
75.8245	8934.665	20.16165
75.87849	8927.651	24.25978
75.93248	8936.536	25.98819
75.98647	8930.71	24.43248
76.04046	8945.96	14.77826
76.09445	8934.295	13.31398
76.14844	8950.06	8.894489
76.20243	8942.346	12.23408
76.25642	8953.666	18.88202
76.31041	8953.091	18.77172
76.3644	8950.694	20.42466
76.41839	8949.53	22.68798
76.47237	8949.634	14.84786
76.52637	8958.302	16.55677
76.58035	8956.432	28.88464
76.63435	8964.093	19.06557
76.68833	8951.261	13.2681
76.74232	8957.631	16.45698
76.79631	8945.746	22.32646
76.8503	8955.616	17.68645
76.90429	8941.472	18.71885
76.95828	8968.429	18.65675
77.01227	8949.556	19.0272
77.06626	8980.543	16.27869
77.12025	8950.531	23.3825
77.17424	8977.898	19.0187
77.22823	8948.282	20.96413
77.28222	8969.861	21.49986
77.3362	8937.098	24.18198
77.3902	8976.12	9.851202
77.44418	8927.431	31.13226
77.49818	8969.117	17.52732
77.55216	8934.704	38.88963
77.60616	8965.604	15.49697
77.66014	8920.715	27.36104
77.71413	8957.705	27.62451
77.76812	8922.048	25.2192
77.82211	8942.805	21.9788
77.8761	8931.538	22.28606
77.93009	8939.963	25.03277
77.98408	8920.613	14.57279
78.03807	8928.129	12.19754
78.09206	8912.957	20.98615
78.14605	8919.473	15.48068
78.20004	8905.105	20.57233
78.25403	8914.214	21.1996
78.30801	8908.212	19.14273
78.36201	8914.223	11.12668
78.41599	8903.456	16.20885
78.46999	8900.78	28.1983
78.52397	8903.78	23.79834
78.57796	8898.715	17.3429
78.63195	8898.396	19.02744
78.68594	8897.021	13.75327
78.73993	8894.176	10.88064
78.79392	8882.422	20.37624
78.84791	8900.563	23.0176
78.9019	8879.992	14.80213
78.95589	8879.425	9.077638
79.00988	8863.985	19.79984
79.06387	8892.081	8.411865
79.11786	8858.531	12.97054
79.17184	8876.917	11.27739
79.22584	8849.063	13.26624
79.27982	8878.479	13.95783
79.33382	8839.742	16.70368
79.3878	8864.902	9.02221
79.4418	8826.054	2.587179
79.49578	8863.085	6.157282
79.54977	8832.974	7.402698
79.60376	8850.414	1.311159
79.65775	8815.003	13.1452
79.71174	8828.81	24.81608
79.76573	8811.273	7.818995
79.81972	8838.957	14.24422
79.87371	8809.839	19.39333
79.9277	8821.928	22.29973
79.98169	8808.361	26.81776
80.03568	8823.466	16.96264
80.08967	8804.067	24.7072
80.14365	8805.08	26.80865
80.19765	8792.751	16.67402
80.25163	8791.962	15.95248
80.30563	8790.302	17.5143
80.35961	8788.558	14.925
80.4136	8782.703	11.36353
80.46759	8766.877	11.9999
80.52158	8776.532	19.72889
80.57557	8770.376	24.48338
80.62956	8775.837	25.12945
80.68355	8752.69	22.6365
80.73754	8771.274	27.26776
80.79153	8747.428	27.49877
80.84552	8766.148	29.85417
80.89951	8745.688	31.46074
80.9535	8766.664	27.71908
81.00748	8743.305	19.31739
81.06148	8762.358	23.19091
81.11546	8731.172	22.28927
81.16946	8759.593	22.60636
81.22344	8722.472	27.64253
81.27744	8746.79	18.79198
81.33142	8716.851	27.91385
81.38541	8738.992	10.16945
81.4394	8713.213	20.19236
81.49339	8738.405	4.557621
81.54738	8698.813	32.63666
81.60137	8712.433	16.14703
81.65536	8689.521	15.02021
81.70935	8715.413	16.77772
81.76334	8690	27.36104
81.81733	8714.099	20.97301
81.87132	8684.235	18.03568
81.92531	8708.092	15.75559
81.97929	8685.021	13.06933
82.03329	8692.425	11.45621
82.08727	8673.909	14.38307
82.14127	8680.876	9.046049
82.19525	8672.928	12.99513
82.24924	8672.792	14.23049
82.30323	8665.665	19.71094
82.35722	8667.453	21.85237
82.41121	8668.567	18.69432
82.4652	8657.372	12.4159
82.5192	8660.936	12.06655
82.57318	8656.133	22.54957
82.62717	8669.119	16.00245
82.68116	8649.955	18.69588
82.73515	8668.088	16.01276
82.78914	8647.913	19.07153
82.84313	8664.545	9.189245
82.89712	8637.923	17.74997
82.95111	8662.78	20.05933
83.0051	8631.261	23.16421
83.05909	8640.526	25.29916
83.11308	8620.27	18.87377
83.16707	8645.853	9.788773
83.22105	8602.151	26.61189
83.27505	8639.499	19.55171
83.32903	8605.999	21.11691
83.38303	8637.133	20.66752
83.43701	8597.972	20.57709
83.491	8617.632	14.79834
83.54499	8594.178	18.54878
83.59898	8606.367	17.28926
83.65297	8575.729	16.13993
83.70696	8605.46	20.12122
83.76095	8565.177	17.73076
83.81494	8590.879	18.43971
83.86893	8572.976	27.10779
83.92292	8590.952	14.98467
83.97691	8557.875	10.82346
84.0309	8573.429	11.25359
84.08488	8563.252	16.21315
84.13888	8580.34	14.71029
84.19286	8555.263	18.77372
84.24686	8555.109	18.59487
84.30084	8541.482	13.95732
84.35484	8543.62	13.10453
84.40882	8534.895	14.14595
84.46281	8528.24	15.53926
84.5168	8519.265	11.48633
84.57079	8513.302	8.313252
84.62478	8521.808	14.42054
84.67877	8507.956	16.39503
84.73276	8509.875	17.61424
84.78675	8489.937	18.70245
84.84074	8506.59	14.81489
84.89473	8487.734	18.69349
84.94872	8504.873	11.20704
85.00271	8483.136	17.56042
85.05669	8499.965	12.30662
85.11069	8456.176	10.94855
85.16467	8479.427	3.18783
85.21867	8439.053	23.0112
85.27265	8453.113	20.93566
85.32664	8424.881	21.11719
85.38063	8442.048	14.92431
85.43462	8410.179	8.953887
85.48861	8435.653	8.099398
85.5426	8403.114	18.88341
85.59659	8415.873	14.50268
85.65058	8393.44	23.54317
85.70457	8414.487	20.76462
85.75856	8374.133	9.683573
85.81255	8403.495	13.53424
85.86654	8360.614	16.92055
85.92052	8383.142	2.549937
85.97452	8330.454	9.575941
86.0285	8367.037	20.81624
86.0825	8338.82	10.00371
86.13648	8340.779	9.051017
86.19048	8303.381	19.31616
86.24446	8337.074	19.2594
86.29845	8277.354	25.81892
86.35244	8315.521	21.72298
86.40643	8266.005	23.94281
86.46042	8296.219	24.43138
86.51441	8252.094	20.63123
86.5684	8273.205	21.36974
86.62239	8229.323	16.61322
86.67638	8253.104	17.57084
86.73037	8214.631	29.16609
86.78436	8240.896	28.42597
86.83835	8204.07	20.2667
86.89233	8213.171	23.54617
86.94633	8188.185	22.78916
87.00031	8187.779	22.29405
87.05431	8163.365	31.29234
87.10829	8172.282	25.16314
87.16228	8152.462	26.5863
87.21627	8155.894	21.22918
87.27026	8140.429	23.7599
87.32425	8136.989	24.47724
87.37824	8114.843	28.97902
87.43223	8113.864	22.42555
87.48622	8105.581	24.82695
87.54021	8104.424	22.82767
87.5942	8084.973	18.87944
87.64819	8074.905	14.61151
87.70218	8068.796	10.07756
87.75616	8056.378	15.34551
87.81016	8043.25	21.19356
87.86414	8028.367	17.23431
87.91814	8021.318	10.90645
87.97212	8011.414	13.16618
88.02612	8013.556	17.67872
88.0801	7997.314	17.90039
88.13409	7985.885	16.8347
88.18808	7965.843	9.6134
88.24207	7968.077	6.03299
88.29606	7954.435	9.49121
88.35005	7959.833	9.49696
88.40404	7936.66	15.26568
88.45803	7951.325	26.69323
88.51202	7916.442	23.50405
88.56601	7920.92	16.84314
88.62	7884.684	26.34016
88.67399	7911.01	19.98041
88.72797	7877.228	19.17399
88.78197	7892.25	19.1157
88.83595	7856.363	19.17937
88.88995	7869.662	19.22286
88.94393	7821.989	20.18711
88.99792	7848.73	13.35465
89.05191	7801.751	25.48627
89.1059	7826.48	25.63518
89.15989	7776.482	20.01594
89.21388	7799.227	30.26993
89.26787	7760.299	22.22519
89.32186	7782.593	19.41176
89.37585	7732.955	29.68963
89.42984	7775.888	16.40177
89.48383	7729.484	17.06593
89.53782	7741.627	24.38553
89.5918	7702.396	17.34239
89.6458	7739.403	8.741934
89.69978	7685.99	17.00312
89.75378	7718.876	17.59224
89.80776	7650.326	20.50284
89.86176	7685.261	14.49347
89.91574	7640.797	7.884963
89.96973	7661.709	15.55351
90.02372	7624.199	19.33933
90.07771	7657.121	14.57566
90.1317	7609.972	21.64104
90.18569	7633.25	13.99872
90.23968	7592.992	18.33062
90.29367	7607.329	23.11262
90.34766	7576.846	15.74202
90.40165	7589.858	21.76939
90.45564	7557.333	13.27562
90.50963	7564.616	5.865523
90.56361	7549.441	12.16914
90.61761	7546.619	20.79146
90.67159	7512.025	12.55267
90.72559	7521.8	9.830631
90.77957	7496.657	14.17243
90.83356	7506.445	11.03403
90.88755	7483.003	14.00251
90.94154	7483.525	9.389963
90.99553	7458.391	6.407691
91.04952	7449.631	13.24262
91.10351	7429.056	12.25583
91.1575	7434.435	5.570146
91.21149	7424.346	7.944749
91.26548	7419.423	5.260545
91.31947	7403.586	11.60169
91.37346	7399.488	14.22467
91.42744	7391.209	10.36297
91.48144	7383.352	8.481892
91.53542	7381.913	5.636235
91.58942	7368.397	7.235635
91.6434	7352.922	10.38424
91.6974	7328.807	9.141976
91.75138	7322.234	17.20957
91.80537	7313.998	16.33326
91.85936	7315.989	15.6285
91.91335	7294.051	11.25969
91.96734	7294.065	11.54205
92.02133	7272.429	10.73246
92.07532	7271.14	19.0653
92.12931	7249.46	21.3701
92.1833	7266.063	14.92
92.23729	7229.305	15.02602
92.29128	7239.452	19.99716
92.34527	7210.363	14.8401
92.39925	7224.327	11.83924
92.45325	7191.651	11.41052
92.50723	7207.773	18.70968
92.56123	7164.761	15.84653
92.61521	7184.066	21.90286
92.6692	7148.313	19.14252
92.72319	7163.247	10.74056
92.77718	7129.362	18.8226
92.83117	7152.434	22.67593
92.88516	7105.507	18.63176
92.93915	7137.353	26.16405
92.99314	7093.902	17.80521
93.04713	7119.289	17.98021
93.10112	7061.274	13.56784
93.15511	7095.476	16.53676
93.2091	7042.421	20.59394
93.26308	7069.086	23.22218
93.31708	7023.953	26.90947
93.37106	7070.134	23.45984
93.42506	7014.374	19.1293
93.47904	7032.426	22.36479
93.53304	6986.717	6.526573
93.58702	7008.175	17.22537
93.64101	6961.587	5.99967
93.695	6977.479	7.125817
93.74899	6944.602	17.09157
93.80298	6961.752	9.558644
93.85697	6941.251	23.31911
93.91096	6947.219	10.19397
93.96495	6915.53	16.43625
94.01894	6939.063	4.887917
94.07293	6892.535	16.17895
94.12691	6906.048	8.259345
94.18091	6878.386	16.05457
94.23489	6896.182	20.43569
94.28889	6859.184	13.27807
94.34287	6864.996	19.56421
94.39687	6847.607	18.95822
94.45085	6827.44	17.54058
94.50484	6846.095	14.15156
94.55883	6808.005	24.30126
94.61282	6806.612	14.13904
94.66681	6811.163	10.66521
94.7208	6779.474	10.62792
94.77479	6761.588	10.66729
94.82878	6755.116	19.86361
94.88277	6743.18	20.625
94.93676	6748.246	22.25669
94.99075	6759.388	23.59842
