T[Â°C]	330nm [counts / mm]	S.D.
20.00037	4972.466	62.4123
20.05447	4976.463	61.24146
20.10858	4969.48	69.50517
20.16269	4966.74	67.30206
20.21679	4960.74	74.4755
20.2709	4960.028	68.56536
20.325	4950.087	63.28373
20.37911	4951.145	61.64289
20.43321	4952.094	62.94964
20.48732	4943.038	67.39429
20.54143	4938.279	66.93434
20.59553	4935.507	66.33945
20.64964	4936.385	68.22346
20.70374	4926.169	73.61559
20.75785	4929.522	71.0024
20.81195	4914.198	67.55148
20.86606	4915.324	71.50795
20.92017	4909.197	67.12433
20.97427	4902.558	68.96293
21.02838	4904.469	63.75534
21.08248	4904.139	65.77622
21.13659	4899.401	69.7351
21.19069	4900.836	66.53488
21.2448	4894.075	65.8708
21.29891	4885.386	66.94368
21.35301	4884.624	62.02412
21.40712	4881.803	65.99198
21.46123	4873.935	68.38652
21.51533	4875.001	61.92032
21.56944	4866.897	66.53526
21.62354	4866.369	69.26124
21.67765	4856.344	65.2719
21.73175	4859.123	68.27412
21.78586	4855.235	74.1968
21.83997	4850.494	70.59302
21.89407	4847.54	69.42807
21.94818	4839.222	68.97852
22.00228	4831.271	68.73424
22.05639	4835.832	62.36346
22.11049	4823.813	72.26877
22.1646	4828.6	67.55652
22.21871	4820.697	60.88612
22.27281	4823.378	58.48152
22.32692	4813.634	66.55664
22.38102	4809.526	68.32029
22.43513	4811.887	63.86897
22.48923	4804.604	64.67381
22.54334	4802.125	76.00626
22.59745	4800.337	58.47586
22.65155	4793.106	66.79924
22.70566	4790.49	60.24797
22.75976	4784.38	60.76511
22.81387	4780.942	62.66666
22.86798	4778.418	61.13468
22.92208	4777.989	62.01353
22.97619	4767.547	66.36273
23.03029	4770.682	69.79095
23.0844	4760.511	59.87719
23.1385	4763.216	60.7313
23.19261	4760.769	66.52272
23.24672	4758.642	60.15082
23.30082	4751.743	63.61138
23.35493	4746.424	66.0859
23.40903	4742.033	66.39787
23.46314	4742.464	63.27552
23.51724	4735.48	61.44439
23.57135	4730.695	60.08862
23.62546	4726.228	62.57431
23.67956	4725.457	62.46439
23.73367	4721.828	60.17993
23.78777	4711.477	61.5439
23.84188	4709.55	63.36387
23.89598	4709.571	64.41533
23.95009	4706.302	64.67661
24.0042	4704.846	68.92754
24.0583	4701.305	68.03619
24.11241	4696.708	65.2971
24.16652	4690.731	62.71806
24.22062	4687.59	64.742
24.27473	4683.973	65.94064
24.32883	4682.481	66.93884
24.38294	4678.594	63.13724
24.43704	4673.473	57.62634
24.49115	4670.882	60.57496
24.54526	4664.141	60.42999
24.59936	4658.581	61.16275
24.65347	4661.581	68.14977
24.70757	4660.145	69.74747
24.76168	4653.338	69.67308
24.81578	4652.245	69.03059
24.86989	4646.763	63.06055
24.924	4642.512	62.32911
24.9781	4642.412	63.36778
25.03221	4639.042	63.40672
25.08631	4636.079	69.44399
25.14042	4629.831	70.77137
25.19452	4626.194	64.34991
25.24863	4618.623	66.3968
25.30274	4608.706	67.02698
25.35684	4609.723	65.48704
25.41095	4610.771	58.93645
25.46505	4606.364	60.22681
25.51916	4604.783	60.43166
25.57327	4596.242	62.56117
25.62737	4591.441	64.94997
25.68148	4592.761	60.96703
25.73558	4587.777	67.83153
25.78969	4582.557	68.12296
25.84379	4578.95	62.13025
25.8979	4576.253	67.17403
25.95201	4574.664	62.33108
26.00611	4568.725	60.20288
26.06022	4566.092	63.49402
26.11432	4563.651	61.77381
26.16843	4552.866	61.84965
26.22253	4552.474	60.31112
26.27664	4553.548	58.38937
26.33075	4544.356	56.03289
26.38485	4551.618	60.67711
26.43896	4546.854	55.34115
26.49306	4541.611	53.44154
26.54717	4541.115	53.83603
26.60127	4527.591	52.07214
26.65538	4531.528	54.99553
26.70949	4519.641	59.9127
26.76359	4519.3	60.7552
26.8177	4515.562	63.3391
26.87181	4515.485	62.71167
26.92591	4509.014	60.32748
26.98002	4507.202	66.28772
27.03412	4499.805	60.06838
27.08823	4503.137	61.20139
27.14233	4500.626	63.04208
27.19644	4493.659	63.62644
27.25055	4495.568	60.13487
27.30465	4483.718	63.90904
27.35876	4482.271	64.52
27.41286	4480.253	65.22518
27.46697	4479.697	68.39209
27.52107	4474.107	60.25702
27.57518	4468.386	62.48452
27.62929	4467.225	64.71109
27.68339	4461.845	59.86865
27.7375	4461.07	60.81824
27.7916	4456.38	62.01744
27.84571	4447.926	63.37092
27.89981	4445.621	63.00317
27.95392	4442.535	56.29357
28.00803	4438.904	56.11844
28.06213	4439.581	62.35691
28.11624	4436.633	62.38884
28.17034	4434.788	61.32585
28.22445	4426.201	61.66382
28.27855	4422.219	59.81429
28.33266	4422.419	53.95517
28.38677	4419.858	52.58979
28.44087	4415.331	60.43941
28.49498	4408.787	59.52077
28.54908	4407.034	56.84351
28.60319	4407.263	55.80507
28.6573	4402.813	56.64
28.7114	4402.473	63.85844
28.76551	4398.912	61.69783
28.81961	4388.042	62.57085
28.87372	4382.992	64.32269
28.92782	4382.452	59.46915
28.98193	4381.075	62.38788
29.03604	4378.582	63.39845
29.09014	4373.098	63.09638
29.14425	4366.778	60.68543
29.19835	4368.869	55.52955
29.25246	4361.102	59.7026
29.30656	4358.803	58.44848
29.36067	4358.426	59.25608
29.41478	4354.363	56.88002
29.46888	4353.199	58.02674
29.52299	4347.209	66.31783
29.57709	4347.749	67.9046
29.6312	4336.819	63.09768
29.68531	4331.307	60.50006
29.73941	4327.72	60.63284
29.79352	4333.322	64.18558
29.84762	4327.338	59.77717
29.90173	4320.724	54.87096
29.95584	4315.148	60.02967
30.00994	4320.96	50.38121
30.06405	4314.047	54.64239
30.11815	4310.807	61.30847
30.17226	4305.437	61.09388
30.22636	4297.338	50.47261
30.28047	4302.737	51.9281
30.33458	4293.535	62.13211
30.38868	4291.507	58.29562
30.44279	4294.408	57.17146
30.49689	4286.629	48.86318
30.551	4283.127	60.67811
30.6051	4281.715	58.23637
30.65921	4274.6	47.89186
30.71332	4273.914	56.89936
30.76742	4274.475	62.89458
30.82153	4259.993	59.68254
30.87563	4259.594	66.43969
30.92974	4255.029	56.56168
30.98384	4252.99	65.93857
31.03795	4251.557	60.18951
31.09206	4249.124	56.78312
31.14616	4247.494	62.70941
31.20027	4245.151	59.01211
31.25437	4242.728	62.79185
31.30848	4237.742	54.66175
31.36259	4230.397	63.04489
31.41669	4230.754	55.05566
31.4708	4222.804	54.56781
31.5249	4222.868	60.95667
31.57901	4216.228	60.70148
31.63311	4214.36	60.68029
31.68722	4214.187	53.9305
31.74133	4207.77	58.90718
31.79543	4202.692	54.93497
31.84954	4205.377	52.0804
31.90364	4198.317	55.99468
31.95775	4197.857	61.41889
32.01186	4194.478	56.71416
32.06596	4191.364	53.93193
32.12007	4187.319	56.40011
32.17417	4183.074	55.69837
32.22828	4180.2	57.59992
32.28238	4176.558	56.44604
32.33649	4171.191	54.51189
32.39059	4166.92	57.88914
32.4447	4165.829	59.40493
32.49881	4161.94	59.49047
32.55291	4156.186	57.33226
32.60702	4155.106	54.87904
32.66113	4152.925	59.23447
32.71523	4146.335	60.73055
32.76934	4144.501	55.14771
32.82344	4145.298	56.45285
32.87755	4142.525	58.11837
32.93165	4137.279	53.79359
32.98576	4135.238	54.0311
33.03986	4129.884	58.59601
33.09397	4126.058	61.43803
33.14808	4119.514	59.71425
33.20218	4115.105	58.6312
33.25629	4117.485	56.89026
33.31039	4115.135	57.06652
33.3645	4106.929	58.79626
33.41861	4110.618	55.44155
33.47271	4103.802	57.32919
33.52682	4103.948	47.05235
33.58092	4100.615	53.58611
33.63503	4098.506	48.43188
33.68913	4096.885	52.61346
33.74324	4085.249	53.43703
33.79735	4088.576	50.22104
33.85145	4078.954	59.06469
33.90556	4070.276	55.97038
33.95966	4075.244	55.9893
34.01377	4073.898	53.70327
34.06787	4066.792	54.32861
34.12198	4069.191	59.16458
34.17609	4053.021	50.48963
34.23019	4061.566	60.24165
34.2843	4057.103	59.05524
34.33841	4048.035	57.63748
34.39251	4053.093	55.9212
34.44662	4045.997	57.92214
34.50072	4037.453	57.42446
34.55483	4037.325	56.62442
34.60893	4026.363	60.7303
34.66304	4031.567	56.57763
34.71714	4026.05	52.07956
34.77125	4023.386	53.89359
34.82536	4020.376	57.12949
34.87946	4019.928	57.17704
34.93357	4016.558	46.69609
34.98767	4011.058	47.64961
35.04178	4013.495	50.33802
35.09589	4009.254	53.86457
35.14999	4004.869	52.33145
35.2041	4000.058	55.59135
35.2582	3997.87	51.38997
35.31231	3990.398	51.73536
35.36641	3992.373	55.03428
35.42052	3988.959	54.27994
35.47462	3987.583	51.45266
35.52873	3986.811	51.48698
35.58284	3979.491	53.16858
35.63694	3974.564	57.45576
35.69105	3970.923	56.32648
35.74516	3963.385	55.76962
35.79926	3962.645	58.10844
35.85337	3960.506	56.02517
35.90747	3959.158	51.57223
35.96158	3955.819	52.25313
36.01568	3951.795	53.11062
36.06979	3947.54	54.02489
36.12389	3943.789	54.75044
36.178	3940.945	50.80221
36.23211	3938.897	52.88961
36.28621	3938.432	57.75835
36.34032	3935.26	58.44023
36.39442	3931.125	54.17568
36.44853	3927.437	53.58266
36.50264	3921.414	55.34392
36.55674	3918.626	53.48167
36.61085	3917.973	52.73967
36.66496	3912.631	49.23228
36.71906	3910.237	52.17445
36.77317	3908.277	51.4973
36.82727	3908.07	43.95039
36.88138	3900.44	42.97859
36.93548	3898.926	47.15267
36.98959	3900.325	46.03705
37.04369	3894.113	46.771
37.0978	3890.063	49.58524
37.15191	3886.834	52.20308
37.20601	3878.772	48.94647
37.26012	3884.522	47.55465
37.31422	3880.656	51.8569
37.36833	3876.941	53.77831
37.42244	3871.777	55.93875
37.47654	3871.39	53.58421
37.53065	3860.255	50.71272
37.58475	3865.008	57.41272
37.63886	3863.315	60.88704
37.69296	3856.692	50.64823
37.74707	3847.5	48.92715
37.80117	3850.635	55.52763
37.85528	3843.03	53.6105
37.90939	3845.806	52.49772
37.96349	3842.563	54.47557
38.0176	3842.115	48.84218
38.0717	3839.483	55.51597
38.12581	3833.33	52.55358
38.17992	3826.314	51.16325
38.23402	3826.357	51.17057
38.28813	3824.364	50.72844
38.34223	3821.82	51.33923
38.39634	3815.633	49.88965
38.45044	3812.046	49.81356
38.50455	3807.643	51.53557
38.55865	3809.777	50.12884
38.61276	3805.619	50.50119
38.66687	3799.825	50.23388
38.72097	3794.054	54.89004
38.77508	3794.502	53.81338
38.82919	3794.067	47.6959
38.88329	3794.205	48.95242
38.9374	3789.717	46.21933
38.9915	3788.155	44.28446
39.04561	3780.41	51.61041
39.09971	3774.059	47.70764
39.15382	3769.29	48.30069
39.20793	3770.789	50.66524
39.26203	3764.209	55.36654
39.31614	3762.567	54.31729
39.37024	3762.826	50.03473
39.42435	3762.975	46.72194
39.47845	3754.32	50.83292
39.53256	3749.677	54.40677
39.58667	3747.063	51.97841
39.64077	3745.429	49.26783
39.69488	3740.138	48.23741
39.74899	3738.221	50.64962
39.80309	3737.116	54.74246
39.8572	3734.589	58.10046
39.9113	3728.563	53.57629
39.96541	3723.788	51.44343
40.01951	3721.208	48.91757
40.07362	3718.98	45.31147
40.12772	3717.293	46.86021
40.18183	3713.098	46.59948
40.23594	3709.716	48.13136
40.29004	3704.978	46.22308
40.34415	3706.417	48.31556
40.39825	3698.457	53.3069
40.45236	3699.736	42.33249
40.50647	3692.053	51.35675
40.56057	3694.549	49.03967
40.61468	3697.375	47.77646
40.66878	3692.122	53.18315
40.72289	3685.891	51.93036
40.77699	3684.836	52.20237
40.8311	3677.611	45.66297
40.8852	3678.623	45.4337
40.93931	3667.99	43.85631
40.99342	3671.99	47.68472
41.04752	3665.003	47.10193
41.10163	3669.919	48.73489
41.15574	3658.374	48.01172
41.20984	3657.438	52.64113
41.26395	3648.138	45.59669
41.31805	3655.401	48.11004
41.37216	3649.312	47.79708
41.42626	3647.09	48.84098
41.48037	3641.417	47.96154
41.53447	3647.174	45.70092
41.58858	3639.602	50.50069
41.64268	3635.71	48.13663
41.69679	3635.297	51.03715
41.7509	3635.317	55.93582
41.805	3625.544	49.14635
41.85911	3625.469	47.82524
41.91322	3621.978	45.39819
41.96732	3618.045	43.69077
42.02143	3617.474	43.34779
42.07553	3615.108	39.60231
42.12964	3609.307	43.60701
42.18375	3608.3	46.87328
42.23785	3602.114	46.48138
42.29196	3602.307	48.38049
42.34606	3597.937	51.99875
42.40017	3595.598	51.97231
42.45427	3592.981	52.67296
42.50838	3588.29	48.6351
42.56248	3581.461	47.92027
42.61659	3578.704	45.96632
42.6707	3575.908	45.80372
42.7248	3572.433	51.31503
42.77891	3572.372	53.43724
42.83302	3569.779	53.69897
42.88712	3568.841	52.2849
42.94123	3566.108	47.49293
42.99533	3560.866	44.40419
43.04944	3558.211	44.87774
43.10354	3556.955	44.39791
43.15765	3553.69	48.58148
43.21175	3547.944	49.60034
43.26586	3544.015	48.62807
43.31997	3541.516	46.59834
43.37407	3537.158	48.85686
43.42818	3537.144	49.29734
43.48228	3535.567	45.12483
43.53639	3534.347	42.69466
43.5905	3530.124	44.80728
43.6446	3525.487	44.6365
43.69871	3523.521	46.11979
43.75281	3521.284	45.61135
43.80692	3512.182	43.86048
43.86102	3517.893	41.73439
43.91513	3513.75	44.97433
43.96923	3510.819	41.34242
44.02334	3505.556	44.77362
44.07745	3506.362	46.97512
44.13155	3502.773	42.65284
44.18566	3501.532	39.07601
44.23977	3495.091	49.258
44.29387	3497.302	50.04013
44.34798	3493.48	47.47157
44.40208	3490.833	48.9181
44.45619	3482.687	49.18084
44.51029	3480.889	47.94651
44.5644	3478.97	51.63732
44.6185	3478.825	46.18282
44.67261	3460.687	46.71637
44.72672	3475.873	51.30355
44.78082	3465.183	43.87476
44.83493	3465.012	49.28954
44.88903	3456.982	47.77612
44.94314	3456.782	50.26202
44.99725	3455.249	49.43345
45.05135	3456.298	45.47771
45.10546	3443.545	47.6689
45.15956	3449.512	48.10868
45.21367	3445.168	47.31738
45.26778	3444.31	46.5783
45.32188	3437.295	40.65661
45.37599	3440.144	48.46264
45.43009	3430.73	44.91399
45.4842	3429.049	50.88017
45.5383	3423.05	51.79589
45.59241	3430.366	42.93374
45.64651	3418.146	41.73866
45.70062	3417.147	50.0615
45.75473	3413.469	48.42109
45.80883	3417.56	52.66439
45.86294	3407.806	47.68425
45.91705	3410.84	49.01007
45.97115	3406.221	42.66096
46.02526	3404.396	41.54167
46.07936	3399.634	42.12803
46.13347	3398.33	37.665
46.18757	3393.918	36.78684
46.24168	3393.563	40.82024
46.29578	3386.107	45.95951
46.34989	3384.892	38.93913
46.404	3378.633	41.96912
46.4581	3382.063	49.15393
46.51221	3372.271	44.66008
46.56631	3372.073	44.63369
46.62042	3369.695	45.51772
46.67453	3370.12	43.92333
46.72863	3364.396	39.42519
46.78274	3360.483	43.35725
46.83684	3358.84	47.47092
46.89095	3360.725	44.69807
46.94505	3357.479	46.00863
46.99916	3355.766	48.03935
47.05326	3348.883	49.19719
47.10737	3349.84	46.77136
47.16148	3345.742	42.96912
47.21558	3342.037	41.58953
47.26969	3337.59	40.59509
47.3238	3335.096	38.63301
47.3779	3330.289	41.26537
47.43201	3328.71	38.4868
47.48611	3326.981	40.07016
47.54022	3324.104	43.3939
47.59433	3319.436	42.19933
47.64843	3317.216	43.23765
47.70254	3316.731	43.75145
47.75664	3312.806	41.48227
47.81075	3312.168	42.70059
47.86485	3309.694	46.91884
47.91896	3306.413	46.1358
47.97306	3304.128	43.43063
48.02717	3301.045	44.16204
48.08128	3295.641	44.46498
48.13538	3294.686	42.47755
48.18949	3292.563	42.80446
48.2436	3289.629	44.97627
48.2977	3284.543	42.05805
48.35181	3286.782	39.17381
48.40591	3279.877	42.29961
48.46002	3277.779	43.51161
48.51412	3273.387	41.45455
48.56823	3273.355	46.36811
48.62233	3264.322	45.72301
48.67644	3270.574	43.22195
48.73055	3264.791	41.77328
48.78465	3261.345	42.31262
48.83876	3259.108	45.55496
48.89286	3255.003	45.08718
48.94697	3256.446	45.54567
49.00108	3253.8	41.57536
49.05518	3246.124	44.18573
49.10929	3246.836	45.35698
49.16339	3241.133	45.85918
49.2175	3243.813	39.38847
49.2716	3233.162	41.74326
49.32571	3236.636	43.55838
49.37981	3230.283	46.86586
49.43392	3235.433	44.98527
49.48803	3227.817	46.66857
49.54213	3229.714	42.44171
49.59624	3217.946	39.45466
49.65034	3223.087	45.65505
49.70445	3213.336	47.61187
49.75856	3220.203	44.29515
49.81266	3215.653	41.75618
49.86677	3210.143	40.79713
49.92087	3199.668	45.75394
49.97498	3205.279	39.08527
50.02908	3197.586	42.89787
50.08319	3203.208	40.24405
50.13729	3191.467	38.62349
50.1914	3190.674	47.48712
50.24551	3185.691	41.17578
50.29961	3186.569	49.75097
50.35372	3183.142	40.63423
50.40783	3185.458	40.03358
50.46193	3176.651	37.7791
50.51604	3181.658	46.18744
50.57014	3171.107	40.82387
50.62425	3175.448	37.77146
50.67836	3166.921	40.47495
50.73246	3167.348	46.35407
50.78657	3165.652	43.03848
50.84067	3164.717	44.3885
50.89478	3154.544	41.2504
50.94888	3154.335	43.20238
51.00299	3148.14	42.42298
51.05709	3153.752	41.23254
51.1112	3145.348	38.73685
51.16531	3146.75	38.48885
51.21941	3142.729	39.46135
51.27352	3140.236	38.62782
51.32763	3137.62	38.64787
51.38173	3135.16	35.95085
51.43584	3130.21	37.84896
51.48994	3127.08	42.48502
51.54405	3121.254	40.57796
51.59815	3123.042	40.69427
51.65226	3122.06	41.19043
51.70636	3117.59	41.74342
51.76047	3115.343	44.52336
51.81458	3117.622	41.64472
51.86868	3114.525	39.96363
51.92279	3110.514	41.29549
51.97689	3107.712	36.47366
52.031	3103.807	38.43994
52.08511	3098.236	44.8112
52.13921	3098.486	42.31784
52.19332	3096.465	38.27402
52.24742	3092.094	40.96689
52.30153	3090.331	40.67718
52.35563	3085.894	37.43499
52.40974	3085.991	41.61651
52.46384	3081.271	42.72436
52.51795	3081.628	42.06501
52.57206	3075.661	41.70762
52.62616	3074.815	40.13076
52.68027	3069.418	39.64726
52.73438	3072.055	44.27965
52.78848	3066.115	40.22812
52.84259	3067.183	40.20806
52.89669	3062.153	41.64051
52.9508	3059.208	40.49726
53.00491	3055.234	43.96758
53.05901	3057.493	34.90018
53.11312	3048.084	44.66276
53.16722	3054.988	40.74205
53.22133	3040.813	40.69672
53.27543	3051.931	42.26468
53.32954	3039.758	39.44038
53.38364	3044.037	44.78569
53.43775	3037.176	42.12859
53.49186	3037.465	41.013
53.54596	3027.956	38.28244
53.60007	3035.861	38.76052
53.65417	3027.599	46.11708
53.70828	3025.535	44.34195
53.76239	3020.169	44.80513
53.81649	3018.471	45.43914
53.8706	3014.075	43.91916
53.9247	3013.457	40.16415
53.97881	3011.449	37.21784
54.03291	3010.033	37.26206
54.08702	3007.557	43.33287
54.14112	3004.523	45.8734
54.19523	3001.879	41.91703
54.24934	2997.625	43.16495
54.30344	2998.11	43.28707
54.35755	2995.244	38.60994
54.41166	2998.085	33.64998
54.46576	2987.591	35.70802
54.51987	2989.751	32.29013
54.57397	2983.956	39.1271
54.62808	2983.287	36.70509
54.68218	2974.272	37.12354
54.73629	2981.327	38.81381
54.79039	2970.216	37.61465
54.8445	2972.079	34.83954
54.89861	2967.619	35.4311
54.95271	2967.282	42.22628
55.00682	2959.493	42.13049
55.06092	2964.987	39.02905
55.11503	2958.968	36.4352
55.16914	2961.108	34.97253
55.22324	2956.721	37.15112
55.27735	2958.792	39.10756
55.33145	2942.149	37.77067
55.38556	2952.871	38.96766
55.43966	2941.337	38.95327
55.49377	2945.539	34.62944
55.54787	2941.391	39.32969
55.60198	2942.622	36.68946
55.65609	2931.401	40.25095
55.71019	2938.033	34.00729
55.7643	2924.051	39.11459
55.81841	2932.316	40.25723
55.87251	2922.769	38.57869
55.92662	2925.504	39.64498
55.98072	2919.859	40.91096
56.03483	2921.166	38.11202
56.08894	2912.402	37.93054
56.14304	2913.65	40.6583
56.19715	2909.809	39.2816
56.25125	2907.747	37.23593
56.30536	2905.153	36.18902
56.35946	2901.65	34.35117
56.41357	2894.916	32.99869
56.46767	2893.845	32.27847
56.52178	2896.649	33.97351
56.57589	2891.233	38.37939
56.62999	2889.88	40.26756
56.6841	2882.889	42.38072
56.7382	2885.478	42.90598
56.79231	2879.283	41.71069
56.84642	2884.133	38.51239
56.90052	2873.418	36.81004
56.95463	2879.981	35.37164
57.00873	2872.886	37.92442
57.06284	2878.936	40.72507
57.11694	2866.458	38.56588
57.17105	2869.648	40.36478
57.22515	2861.195	45.51659
57.27926	2862.651	33.61801
57.33337	2855.652	35.63559
57.38747	2861.841	34.53654
57.44158	2851.195	41.67041
57.49569	2853.463	39.97327
57.54979	2846.81	40.03785
57.6039	2850.016	40.02015
57.658	2841.279	37.69781
57.71211	2841.53	40.64103
57.76621	2833.877	34.75334
57.82032	2840.61	40.56797
57.87442	2834.232	35.2947
57.92853	2838.751	37.66717
57.98264	2827.636	35.80136
58.03674	2832.043	36.08274
58.09085	2824.704	38.06586
58.14495	2827.464	38.54796
58.19906	2821.341	38.28038
58.25317	2819.507	42.55526
58.30727	2815.339	37.46324
58.36138	2814.659	34.75912
58.41549	2809.062	34.61095
58.46959	2810.842	36.27428
58.5237	2804.45	37.20744
58.5778	2805.124	33.3995
58.63191	2804.385	33.21542
58.68601	2803.548	34.64101
58.74012	2797.768	35.57057
58.79422	2796.151	34.29409
58.84833	2793.975	32.77877
58.90244	2789.957	31.51142
58.95654	2788.851	36.84684
59.01065	2787.426	42.02844
59.06475	2783.996	40.07413
59.11886	2780.547	38.05991
59.17297	2780.995	37.39818
59.22707	2777.359	35.05233
59.28118	2774.637	34.74198
59.33528	2771.119	37.55217
59.38939	2768.816	36.52145
59.44349	2766.726	33.73352
59.4976	2766.613	34.807
59.5517	2763.961	37.82621
59.60581	2764.694	37.85106
59.65992	2756.935	38.18126
59.71402	2758.409	40.4398
59.76813	2751.482	39.56715
59.82224	2755.732	40.74312
59.87634	2749.031	36.00403
59.93045	2746.962	35.56663
59.98455	2742.061	43.74691
60.03866	2745.09	39.39233
60.09276	2741.362	41.16525
60.14687	2738.19	39.54052
60.20097	2734.274	39.14494
60.25508	2738.056	35.34067
60.30919	2727.235	32.03386
60.36329	2733.794	30.9454
60.4174	2725.499	40.66792
60.4715	2727.201	37.04016
60.52561	2716.277	31.96082
60.57972	2723.972	37.08294
60.63382	2714.947	40.73336
60.68793	2720.794	35.44794
60.74203	2707.518	33.68721
60.79614	2717.572	35.43054
60.85024	2709.469	30.06283
60.90435	2707.899	38.93706
60.95845	2696.802	39.05858
61.01256	2707.153	30.20008
61.06667	2696.265	34.65165
61.12077	2703.922	33.56219
61.17488	2690.089	38.01516
61.22898	2697.66	33.00184
61.28309	2689.17	38.47608
61.3372	2693.681	35.39579
61.3913	2681.323	39.04588
61.44541	2685.697	31.30961
61.49952	2677.957	35.99475
61.55362	2680.932	34.8511
61.60773	2672.483	36.14137
61.66183	2681.893	32.27629
61.71594	2674.594	35.57106
61.77004	2679.969	36.60621
61.82415	2669.02	34.60687
61.87825	2673.455	30.75401
61.93236	2663.455	34.01018
61.98647	2669.023	36.05727
62.04057	2661.421	38.64952
62.09468	2660.251	35.85116
62.14878	2651.69	34.73941
62.20289	2658.778	35.44746
62.257	2652.025	32.35234
62.3111	2652.031	33.16804
62.36521	2644.438	31.96463
62.41931	2647.798	30.72952
62.47342	2643.538	32.55802
62.52752	2643.962	29.90995
62.58163	2638.829	32.6337
62.63573	2640.261	33.53325
62.68984	2636.152	31.20312
62.74395	2634.169	34.13453
62.79805	2631.451	35.63914
62.85216	2631.539	31.38439
62.90627	2630.782	33.09494
62.96037	2627.892	36.3896
63.01448	2622.508	35.86265
63.06858	2620.55	34.13279
63.12269	2619.974	36.97405
63.17679	2617.069	37.60303
63.2309	2615.341	32.94437
63.285	2613.849	32.69416
63.33911	2612.603	34.82164
63.39322	2608.233	36.55428
63.44732	2609.121	34.40337
63.50143	2602.363	35.06873
63.55553	2607.275	36.29624
63.60964	2598.806	32.84238
63.66375	2603.122	34.2995
63.71785	2595.627	35.16467
63.77196	2600.993	33.52178
63.82606	2595.728	34.30123
63.88017	2594.417	31.49459
63.93428	2586.492	37.35612
63.98838	2587.927	32.61745
64.04249	2584.964	32.39251
64.0966	2589.113	35.83082
64.1507	2580.607	38.92149
64.2048	2587.338	32.03964
64.25891	2579.786	30.38194
64.31302	2588.007	30.21312
64.36712	2573.249	35.0526
64.42123	2580.146	38.24689
64.47533	2569.88	37.59594
64.52944	2575.277	37.18101
64.58354	2572.23	37.0916
64.63765	2581.029	30.54025
64.69176	2561.08	37.15051
64.74586	2574.116	27.97006
64.79996	2563.549	34.14511
64.85407	2569.817	32.20269
64.90818	2559.811	35.88003
64.96229	2563.52	29.77484
65.01639	2557.815	34.50425
65.0705	2562.168	35.0713
65.1246	2560.14	35.43235
65.17871	2561.761	36.20296
65.23281	2556.805	34.19051
65.28692	2555.817	32.72627
65.34103	2552.013	34.82732
65.39513	2552.441	33.73647
65.44923	2551.67	30.18827
65.50334	2553.222	31.55678
65.55745	2551.323	34.16632
65.61156	2550.346	35.0134
65.66566	2552.577	36.91238
65.71976	2547.287	36.90142
65.77387	2552.807	33.12299
65.82798	2551.817	32.61207
65.88208	2550.96	31.93908
65.93619	2545.23	38.78884
65.9903	2554.023	35.68387
66.0444	2550.652	35.32825
66.0985	2551.24	33.75639
66.15261	2543.56	34.53954
66.20672	2553.855	29.7343
66.26083	2544.23	37.13696
66.31493	2553.618	33.82713
66.36903	2544.972	33.06231
66.42314	2558.049	31.50525
66.47725	2551.803	36.80202
66.53135	2558.975	30.66275
66.58546	2552.05	31.92243
66.63956	2564.25	36.43315
66.69367	2562.905	31.32585
66.74778	2566.912	32.11522
66.80188	2562.352	36.02256
66.85599	2566.133	36.66779
66.9101	2563.258	37.78255
66.9642	2577.468	34.30876
67.0183	2567.109	33.66167
67.07241	2575.833	33.55789
67.12652	2577.981	36.30464
67.18063	2584.164	36.97607
67.23473	2582.031	36.02712
67.28883	2584.401	33.61301
67.34294	2586.726	38.63377
67.39705	2593.809	40.5025
67.45115	2599.271	38.19757
67.50526	2599.265	39.20678
67.55936	2603.444	37.59962
67.61347	2605.134	38.56
67.66757	2613.079	37.98074
67.72168	2611.901	34.49865
67.77579	2624.595	37.66055
67.8299	2626.128	42.49374
67.884	2636.292	36.51217
67.9381	2638.272	39.44952
67.99221	2650.736	35.60196
68.04632	2648.769	38.24002
68.10042	2661.507	41.64276
68.15453	2651.986	32.3067
68.20863	2678.917	41.59682
68.26274	2676.655	40.31808
68.31684	2692.45	41.47915
68.37095	2691.619	41.62995
68.42506	2712.746	36.47962
68.47916	2711.361	39.33312
68.53326	2729.248	42.53147
68.58737	2728.659	46.0052
68.64148	2744.677	43.43608
68.69559	2747.584	43.56845
68.74969	2763.944	43.18868
68.80379	2771.363	42.13433
68.8579	2787.021	40.69477
68.91201	2793.156	42.9036
68.96611	2807.708	45.52075
69.02022	2818.546	47.54742
69.07433	2830.909	46.15392
69.12843	2845.064	46.42533
69.18253	2854.62	48.07651
69.23664	2871.445	49.93381
69.29075	2882.886	51.28105
69.34486	2898.65	47.15032
69.39896	2909.395	54.86603
69.45306	2931.604	55.2342
69.50717	2936.331	53.06604
69.56128	2960.765	50.92729
69.61539	2973.666	58.36353
69.66949	2998.538	51.52047
69.72359	3013.37	52.39198
69.7777	3033.89	51.93931
69.83181	3043.094	53.43593
69.88591	3070.691	52.23003
69.94002	3082.958	53.43419
69.99413	3117.228	57.74618
70.04823	3125.052	57.63183
70.10233	3155.475	56.84633
70.15644	3165.397	57.61632
70.21055	3205.365	54.50988
70.26466	3212.507	60.15243
70.31876	3253.991	54.39488
70.37286	3254.793	59.29364
70.42697	3298.911	57.60723
70.48108	3307.857	57.64265
70.53518	3345.609	54.87058
70.58929	3355.86	58.58823
70.64339	3399.698	57.6969
70.6975	3416.043	58.26048
70.7516	3453.091	55.77737
70.80571	3471.389	58.83689
70.85982	3502.814	58.67978
70.91393	3526.516	63.072
70.96803	3562.52	66.33784
71.02213	3590.032	66.65376
71.07624	3621.341	67.67043
71.13035	3654.922	69.53951
71.18445	3688.563	67.6131
71.23856	3720.991	67.18974
71.29266	3744.281	68.20731
71.34677	3778.753	68.26912
71.40087	3805.508	77.21078
71.45498	3848.984	71.31271
71.50909	3871.021	74.80774
71.56319	3919.823	77.68502
71.61729	3941.91	75.45033
71.6714	3984.8	70.84321
71.72551	4004.37	77.65086
71.77962	4066.362	84.12728
71.83372	4076.704	86.1764
71.88783	4140.076	80.95063
71.94193	4156.55	82.95876
71.99604	4220.783	77.28013
72.05014	4238.183	83.26481
72.10425	4294.064	77.61706
72.15836	4322.858	89.24433
72.21246	4383.458	85.01978
72.26657	4405.688	89.77153
72.32067	4463.953	81.44695
72.37478	4493.534	87.32446
72.42889	4550.063	84.87809
72.48299	4576.943	88.60154
72.53709	4625.424	86.5498
72.5912	4654.918	88.96876
72.64531	4694.716	84.98872
72.69942	4728.364	85.27978
72.75352	4764.949	83.95419
72.80762	4796.642	85.78251
72.86173	4829.266	88.0529
72.91584	4864.954	86.16972
72.96994	4895.627	87.72851
73.02405	4931.313	85.35159
73.07816	4955.429	83.8891
73.13226	4992.796	79.59632
73.18636	5010.174	81.43041
73.24047	5046.277	81.86294
73.29458	5052.957	82.47796
73.34869	5097.841	80.6946
73.40279	5102.765	86.38712
73.45689	5136.035	79.28508
73.511	5135.927	75.7997
73.56511	5181.925	76.25745
73.61921	5175.011	96.93954
73.67332	5208.804	78.3624
73.72742	5194.998	88.77155
73.78153	5246.335	79.90033
73.83563	5233.008	86.48907
73.88974	5275.467	79.89449
73.94385	5255.796	83.38324
73.99796	5296.626	86.09937
74.05206	5282.116	82.34028
74.10616	5318.301	74.40914
74.16027	5306.802	72.97058
74.21438	5336.112	72.2746
74.26848	5328.24	73.20675
74.32259	5359.364	72.79085
74.37669	5350.618	68.05535
74.4308	5373.161	72.62716
74.4849	5365.875	77.04676
74.53901	5386.104	76.55386
74.59312	5383.258	77.14278
74.64722	5398.509	80.22607
74.70132	5401.898	74.37509
74.75543	5414.666	66.9763
74.80954	5413.247	65.86732
74.86365	5421.88	66.50661
74.91776	5424.89	70.41389
74.97186	5423.001	71.87664
75.02596	5437.621	67.82923
75.08007	5432.755	65.9465
75.13418	5451.265	66.52721
75.18828	5446.678	69.18695
75.24239	5466.898	62.66684
75.29649	5455.708	65.16617
75.3506	5476.408	71.91158
75.4047	5469.222	77.71575
75.45881	5492.345	69.1152
75.51292	5467.708	85.14658
75.56702	5504.123	69.40346
75.62112	5483.041	73.70926
75.67523	5512.575	74.87811
75.72934	5491.701	69.32438
75.78345	5518.687	70.00074
75.83755	5491.719	70.61612
75.89165	5531.938	64.64882
75.94576	5514.447	75.63194
75.99987	5537.335	62.53757
76.05397	5518.006	78.97807
76.10808	5543.144	63.33586
76.16219	5526.946	72.41614
76.21629	5548.148	74.49072
76.27039	5531.703	76.38766
76.3245	5543.213	79.53809
76.37861	5540.756	72.52908
76.43272	5553.04	70.84727
76.48682	5542.352	78.16415
76.54092	5554.409	78.68803
76.59503	5560.339	78.91691
76.64914	5562.141	76.35421
76.70324	5565.911	66.81456
76.75735	5562.947	66.24527
76.81145	5573.611	70.00624
76.86556	5567.372	72.15662
76.91966	5583.008	76.42115
76.97377	5575.673	79.97701
77.02788	5587.777	78.4336
77.08199	5571.572	77.21535
77.13609	5590.569	67.38702
77.19019	5573.757	73.22275
77.2443	5596.087	74.53416
77.29841	5579.666	76.42187
77.35251	5604.335	74.21755
77.40662	5588.687	77.88802
77.46072	5610.282	78.61256
77.51483	5579.576	78.57907
77.56893	5612.724	78.22386
77.62304	5580.043	79.79829
77.67715	5616.389	72.25887
77.73125	5587.913	70.78477
77.78536	5629.629	77.58884
77.83946	5594.712	74.20583
77.89357	5630.715	77.79112
77.94768	5603.758	78.48265
78.00179	5631.633	67.30392
78.05589	5600.971	68.25555
78.10999	5630.167	68.13722
78.1641	5612.438	72.22106
78.21821	5623.642	68.72876
78.27231	5617.44	75.5058
78.32642	5628.711	70.41368
78.38052	5617.686	74.12289
78.43463	5622.399	74.71444
78.48873	5620.092	75.7916
78.54284	5623.96	77.1874
78.59695	5625.415	75.94877
78.65105	5620.188	76.64865
78.70515	5634.537	79.08588
78.75926	5634.635	81.64088
78.81337	5634.375	73.39816
78.86748	5616.276	68.93721
78.92158	5635.583	68.03426
78.97569	5622.62	72.31753
79.02979	5640.682	69.39843
79.0839	5615.178	66.3877
79.138	5636.878	65.98425
79.19211	5613.313	69.68264
79.24622	5638.968	60.88055
79.30032	5614.338	58.88402
79.35442	5650.829	65.57783
79.40853	5608.445	61.85361
79.46264	5652.126	63.48026
79.51675	5614.155	66.7205
79.57085	5648.023	62.10294
79.62495	5615.618	63.70229
79.67906	5656.839	60.83773
79.73317	5607.893	61.7992
79.78727	5643.284	53.20427
79.84138	5611.393	65.94772
79.89548	5642.717	59.81257
79.94959	5614.016	60.21823
80.00369	5642.355	60.46478
80.0578	5613.182	66.69846
80.11191	5637.282	57.12692
80.16602	5621.175	70.7981
80.22012	5644.225	65.21914
80.27422	5623.197	61.35139
80.32833	5638.467	63.13161
80.38244	5625.805	64.15245
80.43655	5642.042	61.43491
80.49065	5623.342	66.09959
80.54475	5638.914	70.22916
80.59886	5630.247	70.33736
80.65297	5641.357	69.61037
80.70707	5631.174	75.13103
80.76118	5648.639	64.84027
80.81528	5634.281	63.24853
80.86939	5644.261	63.65107
80.92349	5634.142	70.25195
80.9776	5643.277	73.08518
81.03171	5638.717	71.77297
81.08582	5646.67	65.82888
81.13992	5639.846	70.94578
81.19402	5646.624	72.57812
81.24813	5642.164	71.69246
81.30224	5652.83	75.45747
81.35634	5652.097	72.2493
81.41045	5653.816	70.78141
81.46455	5658.944	74.02959
81.51866	5652.555	71.47573
81.57276	5649.616	66.92388
81.62687	5652.598	69.36232
81.68098	5667.695	76.9081
81.73508	5659.526	71.78864
81.78918	5669.273	66.17485
81.84329	5663.435	75.31739
81.8974	5667.967	74.72423
81.95151	5658.564	73.89545
82.00561	5670.289	73.19521
82.05972	5662.851	76.09077
82.11382	5680.584	69.91437
82.16793	5662.656	72.59225
82.22203	5679.687	62.44925
82.27614	5669.537	64.65942
82.33025	5681.475	55.0037
82.38435	5668.06	67.89854
82.43845	5690.646	69.1223
82.49256	5670.574	71.65569
82.54667	5697.4	61.77905
82.60078	5669.052	72.32738
82.65488	5702.592	71.72639
82.70898	5670.636	75.749
82.76309	5697.474	69.18259
82.8172	5673.318	79.67113
82.8713	5709.914	78.55924
82.92541	5672.675	78.01868
82.97952	5710.321	72.25205
83.03362	5681.309	72.95347
83.08772	5707.96	64.75317
83.14183	5683.196	69.57737
83.19594	5716.552	71.18325
83.25005	5680.558	72.53172
83.30415	5722.053	64.14087
83.35825	5686.228	84.8069
83.41236	5723.751	76.21568
83.46647	5685.624	79.10351
83.52058	5723.093	63.18099
83.57468	5687.426	81.53524
83.62878	5736.837	70.8384
83.68289	5692.287	77.50086
83.737	5737.279	70.94044
83.7911	5696.239	76.24263
83.84521	5730.33	70.20863
83.89931	5697.891	71.72234
83.95342	5735.847	66.57455
84.00752	5703.952	72.43234
84.06163	5740.308	54.84113
84.11574	5706.801	60.96991
84.16985	5744.714	63.91739
84.22395	5705.46	63.57502
84.27805	5733.807	68.0824
84.33216	5711.964	70.10273
84.38627	5739.623	61.69126
84.44037	5705.337	68.976
84.49448	5732.402	60.99177
84.54858	5711.422	69.15981
84.60269	5728.836	63.23751
84.65679	5709.202	69.68901
84.7109	5733.445	68.82996
84.76501	5707.063	66.78573
84.81911	5727.99	56.84535
84.87321	5714.367	60.87453
84.92732	5722.49	60.94133
84.98143	5705.316	59.13573
85.03554	5721.742	53.61634
85.08964	5708.989	56.60736
85.14375	5719.47	51.26403
85.19785	5698.976	59.64799
85.25196	5709.362	57.46769
85.30606	5702.376	58.82849
85.36017	5707.613	52.4333
85.41428	5701.266	56.46494
85.46838	5702.053	53.56282
85.52248	5702.487	43.73831
85.57659	5700.512	50.81678
85.6307	5694.46	56.56899
85.68481	5692.916	51.58813
85.73891	5686.346	50.6178
85.79301	5683.47	53.57077
85.84712	5689.315	52.13245
85.90123	5681.297	54.11572
85.95534	5680.339	57.44979
86.00944	5676.173	61.774
86.06355	5681.395	59.74967
86.11765	5664.708	59.66053
86.17176	5668.331	61.71484
86.22586	5648.497	64.6644
86.27997	5657.24	63.58612
86.33408	5643.291	58.97022
86.38818	5656.056	53.2622
86.44228	5637.037	51.27484
86.49639	5643.986	46.9605
86.5505	5623.439	53.73693
86.60461	5646.218	45.39806
86.65871	5616.813	52.40186
86.71281	5636.589	52.05742
86.76692	5606.618	58.67972
86.82103	5626.166	49.10452
86.87513	5602.99	59.22902
86.92924	5630.772	52.83397
86.98335	5596.46	49.51434
87.03745	5620.157	48.92358
87.09155	5587.061	56.96751
87.14566	5606.678	50.04456
87.19977	5576.517	60.80748
87.25388	5591.436	45.22625
87.30798	5563.886	54.42109
87.36208	5596.587	50.73019
87.41619	5551.623	48.15655
87.4703	5582.686	50.41022
87.5244	5544.406	60.94981
87.57851	5574.345	51.36599
87.63261	5531.474	53.93179
87.68672	5565.556	43.20325
87.74082	5529.505	54.33998
87.79493	5558.033	41.5484
87.84904	5514.03	55.19767
87.90314	5541.148	44.41525
87.95724	5506.068	49.64682
88.01135	5537.878	43.71894
88.06546	5500.07	48.97507
88.11957	5539.133	41.56317
88.17367	5485.943	53.21863
88.22778	5526.13	46.20057
88.28188	5486.059	51.42145
88.33599	5516.962	41.15858
88.39009	5475.802	45.16056
88.4442	5495.321	51.73778
88.49831	5472.355	51.455
88.55241	5491.127	31.40763
88.60652	5454.417	48.04345
88.66062	5481.438	44.70636
88.71473	5447.308	49.39516
88.76884	5463.441	37.86777
88.82294	5428.611	50.15605
88.87704	5455.077	43.86488
88.93115	5428.146	47.45203
88.98526	5439.911	46.68021
89.03937	5413.615	50.36995
89.09347	5427.395	40.58617
89.14758	5403.973	42.96683
89.20168	5410.968	38.36525
89.25579	5391.605	45.56596
89.30989	5404.453	43.1796
89.364	5390.191	37.74567
89.41811	5388.058	35.72837
89.47221	5371.131	40.80949
89.52631	5375.801	36.64584
89.58042	5362.001	37.10429
89.63453	5359.792	37.07217
89.68864	5353.862	40.36458
89.74274	5356.288	42.73288
89.79684	5346.399	44.89016
89.85095	5339.978	44.04024
89.90506	5335.65	42.52719
89.95916	5331.46	43.31111
90.01327	5331.319	42.29828
90.06738	5320.625	36.21437
90.12148	5317.751	34.04199
90.17558	5305.525	38.69959
90.22969	5305.227	33.07467
90.2838	5292.217	29.87265
90.33791	5294.031	27.84388
90.39201	5278.862	32.38319
90.44611	5284.131	29.69879
90.50022	5266.687	32.71097
90.55433	5273.208	33.63665
90.60843	5248.923	32.01961
90.66254	5265.079	30.55272
90.71664	5236.963	41.25602
90.77075	5251.076	32.61331
90.82485	5224.97	37.17112
90.87896	5239.304	34.34977
90.93307	5211.933	39.28528
90.98717	5228.233	30.60679
91.04128	5202.377	33.08439
91.09538	5220.242	25.74144
91.14949	5193.425	31.97585
91.2036	5211.396	27.22748
91.2577	5173.607	30.8525
91.31181	5197.229	32.13763
91.36591	5159.656	35.41742
91.42002	5194.962	31.77952
91.47413	5152.795	37.46584
91.52823	5183.411	34.18258
91.58234	5140.648	42.21349
91.63644	5166.156	28.20454
91.69055	5123.704	29.28872
91.74465	5161.179	18.03223
91.79876	5112.786	27.16015
91.85287	5152.981	26.49839
91.90697	5087.81	30.55323
91.96107	5139.527	30.58382
92.01518	5086.606	36.24298
92.06929	5122.379	30.01615
92.1234	5076.801	33.50605
92.1775	5112.188	22.28747
92.23161	5065.969	33.49471
92.28571	5106.834	22.53608
92.33982	5065.806	27.187
92.39392	5092.544	20.21251
92.44803	5045.412	28.24326
92.50214	5078.151	21.91165
92.55624	5034.693	27.41601
92.61034	5060.008	22.45003
92.66445	5018.395	24.84392
92.71856	5048.242	20.0795
92.77267	5011.348	30.16404
92.82677	5034.23	27.70331
92.88087	4996.142	30.57303
92.93498	5018.368	16.69113
92.98909	4990.565	27.27483
93.04319	5009.742	26.6859
93.0973	4981.17	33.30374
93.15141	4990.937	25.71976
93.20551	4972.448	26.35871
93.25961	4984.112	18.46184
93.31372	4961.803	25.64102
93.36783	4964.167	23.66525
93.42194	4939.701	25.48357
93.47604	4945.476	25.79702
93.53014	4934.133	32.22385
93.58425	4944.766	29.66257
93.63836	4922.29	29.42854
93.69246	4922.748	25.95193
93.74657	4904.079	30.47099
93.80067	4910.126	28.3036
93.85478	4898.402	23.21794
93.90888	4900.027	22.01072
93.96299	4887.924	27.05894
94.0171	4884.975	29.23584
94.07121	4870.845	28.2366
94.12531	4876.361	24.4836
94.17941	4852.82	24.06705
94.23352	4864.623	16.17748
94.28763	4836.609	29.7183
94.34174	4872.148	18.24972
94.39584	4816.818	37.37149
94.44994	4838.166	23.41338
94.50405	4830.517	25.99687
94.55816	4804.12	19.91726
94.61226	4819.238	22.82786
94.66637	4811.258	25.04353
94.72047	4773.656	24.90575
94.77458	4780.783	28.75696
94.82868	4773.3	23.86634
94.88279	4759.249	24.19341
94.9369	4771.889	15.07501
94.991	4794.042	15.54369
