T[Â°C]	350nm [counts / mm]	S.D.
20.00037	4352.571	55.62536
20.05447	4351.569	51.81334
20.10858	4343.294	54.66114
20.16269	4342.223	55.29579
20.21679	4340.393	63.61813
20.2709	4333.644	57.39896
20.325	4324.792	54.09156
20.37911	4326.004	54.71546
20.43321	4326.095	51.58919
20.48732	4319.584	54.25406
20.54143	4317.854	51.72314
20.59553	4310.991	58.11298
20.64964	4311.764	59.71464
20.70374	4306.964	59.41217
20.75785	4307.348	57.04537
20.81195	4300.982	53.92765
20.86606	4296.263	61.80444
20.92017	4292.746	55.4788
20.97427	4295.383	57.02069
21.02838	4285.514	59.92438
21.08248	4285.617	56.0621
21.13659	4279.708	57.27581
21.19069	4281.841	59.16119
21.2448	4275.568	53.67573
21.29891	4274.035	54.7413
21.35301	4273.066	55.7189
21.40712	4267.022	59.70689
21.46123	4264.457	55.35127
21.51533	4265.879	57.92186
21.56944	4254.463	58.7623
21.62354	4252.829	55.23179
21.67765	4242.764	60.86511
21.73175	4241.88	57.59673
21.78586	4242.955	56.31814
21.83997	4236.204	68.224
21.89407	4230.376	60.43754
21.94818	4229.849	56.45636
22.00228	4219.63	54.02841
22.05639	4222.862	57.50262
22.11049	4216.766	56.36905
22.1646	4219.169	49.55834
22.21871	4209.916	52.11765
22.27281	4211.547	53.67118
22.32692	4209.649	54.1412
22.38102	4208.626	63.61528
22.43513	4198.898	59.30815
22.48923	4197.87	54.27499
22.54334	4198.395	58.61005
22.59745	4193.473	58.17096
22.65155	4185.543	47.63316
22.70566	4184.577	52.75319
22.75976	4178.361	50.62228
22.81387	4171.289	52.30524
22.86798	4176.084	50.25031
22.92208	4171.102	53.67714
22.97619	4166.042	51.73003
23.03029	4166.34	58.82896
23.0844	4161.379	53.49685
23.1385	4159.549	51.93126
23.19261	4152.153	53.61863
23.24672	4150.41	46.48189
23.30082	4153.946	52.24295
23.35493	4149.767	57.73587
23.40903	4146.303	53.93092
23.46314	4139.83	54.76323
23.51724	4134.009	56.99519
23.57135	4129.571	52.3119
23.62546	4125.086	50.92281
23.67956	4125.038	50.93872
23.73367	4120.629	54.78387
23.78777	4115.753	57.00869
23.84188	4119.367	58.17781
23.89598	4114.129	57.65897
23.95009	4106.138	52.27609
24.0042	4106.152	55.15749
24.0583	4103.714	57.57549
24.11241	4099.11	56.48768
24.16652	4093.368	54.81155
24.22062	4092.751	54.21152
24.27473	4090.08	53.71933
24.32883	4086.233	54.82951
24.38294	4084.736	51.58943
24.43704	4080.651	49.59811
24.49115	4075.061	54.08613
24.54526	4072.199	53.54553
24.59936	4068.843	54.85919
24.65347	4064.591	54.22725
24.70757	4062.912	51.64701
24.76168	4062.609	52.56027
24.81578	4061.75	53.51681
24.86989	4056.637	53.83305
24.924	4052.699	52.55354
24.9781	4051.084	55.29941
25.03221	4046.645	53.76171
25.08631	4045.819	54.9354
25.14042	4039.784	50.72416
25.19452	4035.83	55.37826
25.24863	4030.552	56.07361
25.30274	4025.824	54.5769
25.35684	4023.512	54.14791
25.41095	4019.302	51.52045
25.46505	4018.951	58.06705
25.51916	4013.519	57.15503
25.57327	4009.93	54.47087
25.62737	4007.356	54.22131
25.68148	4003.867	44.9817
25.73558	4003.35	51.40546
25.78969	4002.163	56.0162
25.84379	3996.603	57.08139
25.8979	3994.218	57.39511
25.95201	3992.07	54.47225
26.00611	3983.344	50.11549
26.06022	3977.135	48.25331
26.11432	3981.694	47.92966
26.16843	3975.592	50.46804
26.22253	3967.524	47.30021
26.27664	3971.608	46.96703
26.33075	3960.646	46.54252
26.38485	3963.942	49.40339
26.43896	3955.879	45.21893
26.49306	3954.203	42.98779
26.54717	3955.757	49.10796
26.60127	3948.251	54.32018
26.65538	3946.146	44.31232
26.70949	3943.322	56.06126
26.76359	3941.027	50.63707
26.8177	3934.584	53.79103
26.87181	3932.678	57.6155
26.92591	3931.617	56.49292
26.98002	3931.125	55.0882
27.03412	3922.097	51.00414
27.08823	3921.09	55.66248
27.14233	3916.59	48.48291
27.19644	3914.502	52.92389
27.25055	3915.471	52.58801
27.30465	3904.266	50.46155
27.35876	3908.623	55.00592
27.41286	3899.354	55.11474
27.46697	3900.739	51.1714
27.52107	3893.198	50.81472
27.57518	3890.602	50.79248
27.62929	3886.873	50.01021
27.68339	3883.627	48.4986
27.7375	3884.65	52.78587
27.7916	3884.325	51.72232
27.84571	3875.827	53.05435
27.89981	3874.604	55.00518
27.95392	3870.4	50.16504
28.00803	3863.531	51.94844
28.06213	3862.65	53.40058
28.11624	3858.287	50.69237
28.17034	3853.892	53.33036
28.22445	3852.78	54.48272
28.27855	3851.709	49.79474
28.33266	3847.68	46.29064
28.38677	3843.385	50.08169
28.44087	3841.596	49.70984
28.49498	3837.264	45.96217
28.54908	3835.009	45.15535
28.60319	3835.998	48.6984
28.6573	3834.256	53.02629
28.7114	3831.395	54.7951
28.76551	3827.326	54.17194
28.81961	3820.839	53.02323
28.87372	3811.57	53.69398
28.92782	3808.145	52.64452
28.98193	3806.717	52.99464
29.03604	3804.459	54.81002
29.09014	3805.098	56.80315
29.14425	3799.235	52.51962
29.19835	3793.853	48.6669
29.25246	3791.382	48.48107
29.30656	3787.707	48.69112
29.36067	3786.938	50.3868
29.41478	3784.839	48.38852
29.46888	3781.257	45.95492
29.52299	3776.91	49.37193
29.57709	3777.375	58.34538
29.6312	3773.3	54.53275
29.68531	3770.645	50.08493
29.73941	3766.149	48.41899
29.79352	3765.343	55.73014
29.84762	3760.943	51.79741
29.90173	3756.737	47.99316
29.95584	3753.3	48.99674
30.00994	3754.018	50.5365
30.06405	3746.984	52.38689
30.11815	3744.761	46.38511
30.17226	3744.697	45.58755
30.22636	3735.279	51.06688
30.28047	3734.455	48.13381
30.33458	3733.399	48.66698
30.38868	3735.696	46.81712
30.44279	3729.867	49.35545
30.49689	3719.758	44.89245
30.551	3720.804	44.618
30.6051	3720.198	53.78162
30.65921	3712.406	42.03982
30.71332	3706.608	43.52698
30.76742	3709.225	44.55389
30.82153	3699.518	46.26985
30.87563	3705.448	54.84204
30.92974	3694.06	44.24335
30.98384	3693.522	55.69421
31.03795	3687.722	56.33422
31.09206	3690.283	54.50713
31.14616	3687.383	54.67635
31.20027	3680.738	48.77835
31.25437	3682.397	56.42986
31.30848	3676.011	48.35425
31.36259	3671.587	51.6365
31.41669	3672.131	44.84117
31.4708	3665.802	46.20716
31.5249	3664.792	48.56236
31.57901	3659.514	50.70444
31.63311	3656.417	48.83199
31.68722	3652.549	48.9911
31.74133	3649.621	46.68249
31.79543	3645.741	45.53859
31.84954	3644.95	49.68155
31.90364	3635.553	53.29441
31.95775	3634.345	55.11804
32.01186	3638.292	51.98819
32.06596	3632.945	47.05002
32.12007	3629.253	46.45339
32.17417	3631.05	48.62938
32.22828	3630.173	50.32273
32.28238	3621.576	48.64565
32.33649	3616.31	50.87814
32.39059	3615.27	50.33383
32.4447	3612.729	47.22974
32.49881	3607.616	47.19135
32.55291	3602.146	43.90965
32.60702	3600.212	47.53006
32.66113	3595.201	51.49733
32.71523	3593.061	47.74104
32.76934	3592.59	45.1781
32.82344	3586.527	45.28366
32.87755	3586.476	46.4687
32.93165	3581.287	47.96509
32.98576	3580.97	46.26075
33.03986	3574.315	53.40192
33.09397	3571.964	56.583
33.14808	3570.759	48.94202
33.20218	3567.667	49.56234
33.25629	3564.442	50.19182
33.31039	3564.501	47.20979
33.3645	3560.629	45.34186
33.41861	3558.358	43.63003
33.47271	3552.095	45.36816
33.52682	3549.599	42.18002
33.58092	3544.693	43.42715
33.63503	3541.222	45.27203
33.68913	3541.861	47.43722
33.74324	3534.68	41.55058
33.79735	3537.868	46.00345
33.85145	3530.698	48.82981
33.90556	3531.126	43.83035
33.95966	3526.182	49.64187
34.01377	3522.865	49.32926
34.06787	3524.279	43.44434
34.12198	3514.962	47.07162
34.17609	3513.971	45.85572
34.23019	3514.105	51.63395
34.2843	3510.922	48.87883
34.33841	3500.736	43.17707
34.39251	3504.616	50.05191
34.44662	3500.2	50.60565
34.50072	3498.967	47.55807
34.55483	3491.793	44.53582
34.60893	3491.982	44.41084
34.66304	3489.911	48.38724
34.71714	3485.826	41.89125
34.77125	3480.6	42.82185
34.82536	3480.861	43.19078
34.87946	3471.72	43.44264
34.93357	3470.851	39.28518
34.98767	3467.122	42.84348
35.04178	3468.469	38.88194
35.09589	3461.584	42.88473
35.14999	3458.296	52.58018
35.2041	3455.209	47.38285
35.2582	3454.237	44.6805
35.31231	3448.669	46.39771
35.36641	3450.776	43.76455
35.42052	3444.846	43.32147
35.47462	3440.63	46.22193
35.52873	3440.959	46.1958
35.58284	3437.983	43.57327
35.63694	3432.408	44.07372
35.69105	3431.249	45.44421
35.74516	3424.366	45.61343
35.79926	3419.366	47.82724
35.85337	3418.838	45.14764
35.90747	3417.848	44.83857
35.96158	3414.887	44.59193
36.01568	3412.253	44.04791
36.06979	3408.899	43.90549
36.12389	3404.386	44.87853
36.178	3399.963	44.61113
36.23211	3398.162	43.96804
36.28621	3394.096	46.27652
36.34032	3391.153	46.84117
36.39442	3388.962	47.53146
36.44853	3386.889	47.77826
36.50264	3384.584	44.37679
36.55674	3380.379	41.54628
36.61085	3381.277	43.31352
36.66496	3380.047	43.61036
36.71906	3374.418	42.99471
36.77317	3368.051	42.55528
36.82727	3367.888	33.47686
36.88138	3364.119	35.27889
36.93548	3362.184	39.90745
36.98959	3360.525	37.81615
37.04369	3355.208	36.37582
37.0978	3352.224	39.09012
37.15191	3348.04	42.09221
37.20601	3343.236	42.74226
37.26012	3347.863	46.52387
37.31422	3339.518	44.46495
37.36833	3337.071	41.21599
37.42244	3331.812	44.60646
37.47654	3334.23	41.08894
37.53065	3325.311	45.40226
37.58475	3326.434	40.69381
37.63886	3324.727	45.97217
37.69296	3321.431	41.59747
37.74707	3310.011	39.19738
37.80117	3316.065	50.44513
37.85528	3306.458	43.46826
37.90939	3312.203	43.57621
37.96349	3306.002	40.97666
38.0176	3305.234	37.88211
38.0717	3302.329	41.45209
38.12581	3296.165	45.19364
38.17992	3296.744	44.40199
38.23402	3295.683	41.89321
38.28813	3288.683	44.96944
38.34223	3286.987	40.79453
38.39634	3282.002	45.90422
38.45044	3277.956	39.53698
38.50455	3274.003	43.95195
38.55865	3274.066	43.45591
38.61276	3270.524	43.32502
38.66687	3268.988	42.87072
38.72097	3265.322	45.1349
38.77508	3262.392	40.96799
38.82919	3257.521	39.65214
38.88329	3261.699	41.13783
38.9374	3256.955	41.11193
38.9915	3250.88	40.72958
39.04561	3247.695	43.4623
39.09971	3243.561	41.00371
39.15382	3243.058	44.36477
39.20793	3239.014	42.03712
39.26203	3231.545	40.94682
39.31614	3233.318	44.06261
39.37024	3230.522	41.35186
39.42435	3227.844	41.13625
39.47845	3223.371	39.17974
39.53256	3221.159	43.47141
39.58667	3219.668	43.52679
39.64077	3213.816	39.46302
39.69488	3208.177	39.99421
39.74899	3208.772	43.06018
39.80309	3209.472	43.94474
39.8572	3206.061	40.65882
39.9113	3201.02	41.98243
39.96541	3197.481	43.67752
40.01951	3194.93	42.47391
40.07362	3191.162	41.72016
40.12772	3188.568	38.78121
40.18183	3189.216	40.04738
40.23594	3183.558	43.59328
40.29004	3176.137	42.87134
40.34415	3179.093	43.80067
40.39825	3168.778	43.87437
40.45236	3170.942	34.09232
40.50647	3168.083	34.80531
40.56057	3167.227	38.37874
40.61468	3166.806	40.76076
40.66878	3165.224	42.1644
40.72289	3161.136	43.00919
40.77699	3153.66	39.6973
40.8311	3147.924	40.01634
40.8852	3154.194	42.94042
40.93931	3147.371	39.15223
40.99342	3144.716	39.09515
41.04752	3140.694	41.88583
41.10163	3140.688	36.40123
41.15574	3135.184	34.59547
41.20984	3135.418	45.61525
41.26395	3127.345	37.67212
41.31805	3124.274	44.12827
41.37216	3123.681	43.0961
41.42626	3122.037	37.95089
41.48037	3116.722	47.39053
41.53447	3115.437	42.24685
41.58858	3113.308	42.55943
41.64268	3108.599	38.89367
41.69679	3105.812	41.50431
41.7509	3109.46	41.622
41.805	3103.081	38.25348
41.85911	3099.351	38.67976
41.91322	3096.882	39.13533
41.96732	3094.172	41.94304
42.02143	3091.077	41.08691
42.07553	3089.633	37.80406
42.12964	3085.027	38.18699
42.18375	3083.626	36.89765
42.23785	3079.76	35.44441
42.29196	3079.644	36.71455
42.34606	3074.747	40.77669
42.40017	3072.936	44.16656
42.45427	3069.47	42.98019
42.50838	3066.341	40.07317
42.56248	3061.305	44.84656
42.61659	3058.882	43.64366
42.6707	3058.135	43.88459
42.7248	3055.408	49.28114
42.77891	3050.775	48.76525
42.83302	3045.712	46.32047
42.88712	3045.552	43.14555
42.94123	3043.333	40.9658
42.99533	3038.887	38.81893
43.04944	3036.661	38.54691
43.10354	3033.141	37.50121
43.15765	3030.486	37.07397
43.21175	3028.128	41.27172
43.26586	3022.833	41.74457
43.31997	3026.177	39.94454
43.37407	3019.411	42.47239
43.42818	3017.456	41.76229
43.48228	3015.093	36.17513
43.53639	3011.8	35.64643
43.5905	3008.045	36.10207
43.6446	3007.036	37.24961
43.69871	3003.746	35.35997
43.75281	3002.837	33.69119
43.80692	2998.129	38.65968
43.86102	3001.561	34.06203
43.91513	2991.426	37.01655
43.96923	2991.622	37.07398
44.02334	2985.539	36.46824
44.07745	2986.897	34.66412
44.13155	2983.597	32.65461
44.18566	2982.295	37.58147
44.23977	2976.902	39.6012
44.29387	2976.108	36.42921
44.34798	2967.564	39.05748
44.40208	2975.581	34.62927
44.45619	2966.683	37.48258
44.51029	2962.77	37.60951
44.5644	2960.662	42.33696
44.6185	2962.258	36.39943
44.67261	2951.273	41.82746
44.72672	2953.683	40.3708
44.78082	2948.104	42.9838
44.83493	2951.001	36.73822
44.88903	2939.557	37.25976
44.94314	2945.414	44.28852
44.99725	2941.11	44.92633
45.05135	2938.172	37.44849
45.10546	2930.209	35.28546
45.15956	2933.634	42.23222
45.21367	2927.416	44.39625
45.26778	2931.111	38.81142
45.32188	2921.965	38.96096
45.37599	2919.485	37.04891
45.43009	2911.148	37.23149
45.4842	2918.536	32.54433
45.5383	2912.601	37.58699
45.59241	2912.578	35.67039
45.64651	2907.179	41.2314
45.70062	2906.246	40.62538
45.75473	2900.101	40.64749
45.80883	2904.625	37.86299
45.86294	2892.514	40.19478
45.91705	2896.337	37.76104
45.97115	2891.216	31.95373
46.02526	2894.176	38.40418
46.07936	2884.108	36.2305
46.13347	2885.634	37.80632
46.18757	2878.002	34.74078
46.24168	2879.354	35.24743
46.29578	2874.133	42.41408
46.34989	2875.004	38.07256
46.404	2866.386	38.69217
46.4581	2869.261	37.62204
46.51221	2861.902	36.45236
46.56631	2861.15	38.97062
46.62042	2854.608	40.74351
46.67453	2855.218	35.24323
46.72863	2849.146	35.81852
46.78274	2849.469	34.50177
46.83684	2845.655	36.34904
46.89095	2846.101	34.5045
46.94505	2843.632	37.82791
46.99916	2844.398	37.68843
47.05326	2838.862	40.00327
47.10737	2835.724	40.65727
47.16148	2833.278	35.44481
47.21558	2829.867	32.87955
47.26969	2825.552	32.67482
47.3238	2823.094	31.21941
47.3779	2819.301	33.8196
47.43201	2818.292	32.40396
47.48611	2815.283	31.59425
47.54022	2815.042	33.15158
47.59433	2810.568	34.9629
47.64843	2805.561	34.39542
47.70254	2805.358	34.81058
47.75664	2803.456	37.74426
47.81075	2802.883	36.3582
47.86485	2800.787	36.82027
47.91896	2796.923	40.39358
47.97306	2792.448	42.30545
48.02717	2792.788	35.16771
48.08128	2788.497	33.45472
48.13538	2786.915	39.36124
48.18949	2783.161	35.59004
48.2436	2783.802	32.87398
48.2977	2777.901	36.30234
48.35181	2773.954	37.82718
48.40591	2772.429	38.11703
48.46002	2773.178	36.12466
48.51412	2766.247	37.60601
48.56823	2765.678	33.34825
48.62233	2757.913	33.85839
48.67644	2763.302	38.93097
48.73055	2758.145	37.87188
48.78465	2755.576	36.8414
48.83876	2751.315	35.79933
48.89286	2752.656	33.70914
48.94697	2748.487	37.70571
49.00108	2748.067	37.13677
49.05518	2743.24	38.1414
49.10929	2744.513	34.06117
49.16339	2734.267	41.55405
49.2175	2736.86	35.98483
49.2716	2731.109	34.20935
49.32571	2731.952	37.17665
49.37981	2725.74	33.29082
49.43392	2727.926	31.20359
49.48803	2722.979	36.08797
49.54213	2721.008	36.99436
49.59624	2714.239	33.1969
49.65034	2718.435	33.60157
49.70445	2708.658	30.82402
49.75856	2714.023	34.77097
49.81266	2712.549	35.50151
49.86677	2709.151	30.44763
49.92087	2701.574	36.0709
49.97498	2697.363	29.90916
50.02908	2695.291	34.74856
50.08319	2694.944	37.27766
50.13729	2687.005	34.12341
50.1914	2693.49	36.98367
50.24551	2683.159	34.72222
50.29961	2680.813	38.66716
50.35372	2678.3	34.48041
50.40783	2679.794	29.94639
50.46193	2673.251	31.95472
50.51604	2676.095	33.75808
50.57014	2669.799	31.94834
50.62425	2673.883	32.31319
50.67836	2661.713	35.3692
50.73246	2665.194	36.84644
50.78657	2658.238	34.07504
50.84067	2664.704	33.63597
50.89478	2654.169	36.60721
50.94888	2649.547	35.52387
51.00299	2646.042	36.16316
51.05709	2652.676	32.68954
51.1112	2641.198	28.9635
51.16531	2644.885	30.64867
51.21941	2639.523	33.3013
51.27352	2638.785	32.01718
51.32763	2635.06	29.48405
51.38173	2633.102	28.90311
51.43584	2628.696	32.31067
51.48994	2627.915	33.88931
51.54405	2625.066	33.02436
51.59815	2624.72	33.29222
51.65226	2622.359	30.3138
51.70636	2621.759	31.8042
51.76047	2617.56	34.73101
51.81458	2615.872	32.90292
51.86868	2611.611	33.24717
51.92279	2608.07	32.58097
51.97689	2607.21	33.0955
52.031	2603.813	35.21244
52.08511	2599.153	35.03262
52.13921	2597.703	35.23425
52.19332	2593.329	35.73461
52.24742	2590.798	35.24556
52.30153	2589.581	34.64181
52.35563	2582.972	36.65256
52.40974	2582.794	36.0327
52.46384	2578.165	30.58651
52.51795	2580.939	30.16084
52.57206	2577.843	36.39655
52.62616	2577.728	34.78798
52.68027	2572.698	33.0655
52.73438	2571.045	34.77939
52.78848	2563.82	33.20021
52.84259	2566.457	32.58782
52.89669	2557.388	35.23167
52.9508	2564.117	37.73591
53.00491	2552.835	37.23378
53.05901	2560.14	35.15361
53.11312	2548.82	34.42168
53.16722	2553.511	31.12051
53.22133	2544.95	33.272
53.27543	2552.106	31.88246
53.32954	2541.104	30.31304
53.38364	2544.723	34.25805
53.43775	2537.375	36.46176
53.49186	2540.317	30.62107
53.54596	2533.242	33.37906
53.60007	2533.545	31.01202
53.65417	2524.621	33.78046
53.70828	2527.435	34.76239
53.76239	2522.053	38.8884
53.81649	2523.379	36.93496
53.8706	2519.183	32.3668
53.9247	2516.479	31.61408
53.97881	2514.048	34.85546
54.03291	2512.285	35.39486
54.08702	2509.913	32.8575
54.14112	2508.823	29.67717
54.19523	2506.637	28.65676
54.24934	2500.785	32.12312
54.30344	2501.772	35.41447
54.35755	2495.939	33.75925
54.41166	2495.868	30.80806
54.46576	2489.461	29.2864
54.51987	2493.063	30.10894
54.57397	2484.409	27.75203
54.62808	2486.06	26.82955
54.68218	2478.287	25.97822
54.73629	2486.598	31.6181
54.79039	2473.104	28.69768
54.8445	2475.988	29.55875
54.89861	2468.765	34.17083
54.95271	2471.624	29.11449
55.00682	2463.485	31.82455
55.06092	2466.624	30.39592
55.11503	2462.083	30.15112
55.16914	2464.185	37.04531
55.22324	2458.896	31.8753
55.27735	2458.588	31.42318
55.33145	2451.889	31.73383
55.38556	2457.756	30.6164
55.43966	2446.715	31.34521
55.49377	2450.631	25.8647
55.54787	2440.93	32.03635
55.60198	2448.138	25.9934
55.65609	2437.702	27.48875
55.71019	2441.707	30.47644
55.7643	2430.791	32.61673
55.81841	2437.176	36.30898
55.87251	2430.555	29.9263
55.92662	2430.608	32.89444
55.98072	2425.185	33.36977
56.03483	2425.407	32.19868
56.08894	2422.104	31.94448
56.14304	2422.878	31.80225
56.19715	2417.667	34.14289
56.25125	2416.019	32.13445
56.30536	2413.648	32.01306
56.35946	2411.099	30.65605
56.41357	2407.037	28.90571
56.46767	2405.412	29.33005
56.52178	2404.226	27.78634
56.57589	2397.464	27.82915
56.62999	2398.197	30.63284
56.6841	2393.996	33.24352
56.7382	2393.039	29.64537
56.79231	2387.579	27.78424
56.84642	2390.698	31.56269
56.90052	2384.939	29.82857
56.95463	2389.052	32.10525
57.00873	2381.476	29.48853
57.06284	2385.757	29.42351
57.11694	2376.01	35.35635
57.17105	2378.223	34.31813
57.22515	2372.174	37.00229
57.27926	2372.913	36.40822
57.33337	2363.565	30.39346
57.38747	2368.092	29.42948
57.44158	2361.428	30.1747
57.49569	2365.669	31.16626
57.54979	2360.427	33.50829
57.6039	2361.47	32.92348
57.658	2350.322	30.14617
57.71211	2353.394	28.94292
57.76621	2344.637	28.6994
57.82032	2350.593	31.20681
57.87442	2342.008	32.51947
57.92853	2347.089	30.7863
57.98264	2335.447	31.67244
58.03674	2343.519	28.20322
58.09085	2335.238	29.28664
58.14495	2335.829	31.54602
58.19906	2332.096	33.13723
58.25317	2330.762	31.18949
58.30727	2326.049	29.36843
58.36138	2325.913	29.28511
58.41549	2318.808	27.61393
58.46959	2321.236	26.65755
58.5237	2316.602	29.5037
58.5778	2315.527	25.52428
58.63191	2313.607	23.41639
58.68601	2314.32	26.25347
58.74012	2310.328	29.82686
58.79422	2305.798	28.87664
58.84833	2306.067	25.65239
58.90244	2305.001	26.79447
58.95654	2301.29	29.06904
59.01065	2299.365	27.50746
59.06475	2296.784	28.60672
59.11886	2293.059	31.50994
59.17297	2291.725	30.21873
59.22707	2290.112	27.95981
59.28118	2291.823	27.62919
59.33528	2289.446	29.55104
59.38939	2285.905	28.41172
59.44349	2281.853	29.20315
59.4976	2280.501	29.96535
59.5517	2275.676	31.21832
59.60581	2274.835	27.60367
59.65992	2270.713	27.98982
59.71402	2273.656	28.66628
59.76813	2267.733	29.59367
59.82224	2268.838	32.6731
59.87634	2262.833	27.8679
59.93045	2262.215	24.10899
59.98455	2256.475	28.93554
60.03866	2259.654	30.12106
60.09276	2252.58	33.59708
60.14687	2254.228	31.35501
60.20097	2250.207	31.59289
60.25508	2251.758	25.47299
60.30919	2246.495	25.36213
60.36329	2249.251	25.08836
60.4174	2237.069	30.30493
60.4715	2243.055	26.14752
60.52561	2234.356	27.94784
60.57972	2236.592	27.26478
60.63382	2229.286	29.66728
60.68793	2236.723	30.35458
60.74203	2226.851	25.3047
60.79614	2233.007	29.55443
60.85024	2220.661	29.39217
60.90435	2231.045	28.37695
60.95845	2216.058	30.358
61.01256	2221.211	29.23729
61.06667	2210.475	36.42635
61.12077	2219.038	26.72385
61.17488	2210.746	29.84072
61.22898	2213.817	27.02039
61.28309	2204.852	30.60669
61.3372	2209.613	24.82022
61.3913	2197.25	29.99759
61.44541	2207.653	24.57845
61.49952	2196.85	31.20248
61.55362	2201.03	27.74404
61.60773	2191.861	32.04447
61.66183	2197.917	26.37176
61.71594	2190.722	32.42409
61.77004	2195.214	28.37762
61.82415	2184.87	25.89775
61.87825	2188.351	26.51732
61.93236	2180.265	27.23771
61.98647	2187.375	29.46564
62.04057	2177.077	30.46186
62.09468	2181.14	26.61677
62.14878	2173.219	27.46875
62.20289	2176.01	24.62356
62.257	2169.62	26.36757
62.3111	2173.39	25.8317
62.36521	2168.126	24.43883
62.41931	2166.904	21.97094
62.47342	2163.516	25.23098
62.52752	2165.624	26.28058
62.58163	2158.945	26.24063
62.63573	2158.357	23.54761
62.68984	2157.313	23.18468
62.74395	2156	23.99061
62.79805	2153.648	26.7463
62.85216	2153.779	26.60791
62.90627	2150.297	28.09945
62.96037	2148.07	28.57512
63.01448	2144.755	26.13339
63.06858	2143.402	24.90346
63.12269	2142.261	24.92858
63.17679	2139.919	23.14328
63.2309	2140.719	23.65649
63.285	2139.452	26.13323
63.33911	2137.102	24.91077
63.39322	2131.416	27.22292
63.44732	2130.952	27.43636
63.50143	2124.153	25.66112
63.55553	2128.63	24.61189
63.60964	2122.416	28.46456
63.66375	2126.328	29.26468
63.71785	2120.071	26.18383
63.77196	2120.053	25.74069
63.82606	2115.153	32.80566
63.88017	2117.221	28.3731
63.93428	2114.978	28.47431
63.98838	2114.331	30.17839
64.04249	2111.295	28.10416
64.0966	2115.98	26.4999
64.1507	2104.01	27.26778
64.2048	2111.5	26.90588
64.25891	2102.51	25.4628
64.31302	2109.477	27.92314
64.36712	2097.668	26.88317
64.42123	2103.982	24.05823
64.47533	2094.916	29.40464
64.52944	2100.646	27.96368
64.58354	2092.151	24.8464
64.63765	2104.149	24.84673
64.69176	2089.034	25.35399
64.74586	2098.083	25.67275
64.79996	2091.922	27.21187
64.85407	2096.75	25.52752
64.90818	2087.906	28.2993
64.96229	2092.996	27.00123
65.01639	2083.566	29.86985
65.0705	2086.035	24.56651
65.1246	2083.074	26.19044
65.17871	2086.424	26.36225
65.23281	2083.701	25.94663
65.28692	2083.109	29.04309
65.34103	2080.798	30.58478
65.39513	2081.05	27.03847
65.44923	2078.627	26.91565
65.50334	2077.256	26.73084
65.55745	2077.63	23.80984
65.61156	2077.955	25.01215
65.66566	2078.051	27.70359
65.71976	2075.472	28.11196
65.77387	2077.973	27.44574
65.82798	2074.715	29.2894
65.88208	2078.45	27.67521
65.93619	2074.392	28.34597
65.9903	2075.692	26.80556
66.0444	2071.709	25.20353
66.0985	2079.291	25.99786
66.15261	2070.219	23.18015
66.20672	2082.112	25.7946
66.26083	2071.952	26.12677
66.31493	2082.359	26.49844
66.36903	2070.745	29.18294
66.42314	2084.086	22.23886
66.47725	2076.512	23.79883
66.53135	2082.728	25.34389
66.58546	2077.448	30.23757
66.63956	2082.999	26.91852
66.69367	2080.793	30.18909
66.74778	2086.33	29.25811
66.80188	2085.496	26.29512
66.85599	2096.384	29.77865
66.9101	2087.611	27.22115
66.9642	2098.21	26.78947
67.0183	2094.64	27.39102
67.07241	2099.31	27.55255
67.12652	2095.771	31.90291
67.18063	2104.581	27.13697
67.23473	2104.413	27.63797
67.28883	2107.615	29.70688
67.34294	2110.415	28.41924
67.39705	2113.648	29.28241
67.45115	2115.801	30.76365
67.50526	2118.142	32.36937
67.55936	2124.765	33.94894
67.61347	2124.975	30.51633
67.66757	2131.235	30.79215
67.72168	2128.584	32.5011
67.77579	2138.472	31.58138
67.8299	2138.236	32.395
67.884	2150.187	30.1089
67.9381	2151.365	30.90287
67.99221	2160.926	29.57012
68.04632	2158.858	32.05382
68.10042	2170.249	31.85838
68.15453	2168.939	30.87866
68.20863	2183.395	31.64496
68.26274	2179.63	34.03836
68.31684	2196.442	28.38142
68.37095	2195.767	37.10531
68.42506	2207.516	31.42705
68.47916	2210.47	28.63293
68.53326	2224.177	30.7451
68.58737	2225.372	32.76582
68.64148	2240.815	32.50838
68.69559	2244.047	36.73568
68.74969	2258.255	34.65958
68.80379	2263.306	31.91258
68.8579	2276.727	31.7612
68.91201	2284.805	35.47521
68.96611	2294.37	37.01567
69.02022	2300.194	35.64817
69.07433	2310.617	34.22335
69.12843	2321.837	37.78673
69.18253	2331.636	40.43978
69.23664	2347.726	37.89907
69.29075	2356.343	38.47719
69.34486	2368.628	37.836
69.39896	2376.46	39.98862
69.45306	2395.363	40.31679
69.50717	2404.389	44.81325
69.56128	2424.687	40.75584
69.61539	2432.993	37.50428
69.66949	2450.485	38.27502
69.72359	2460.198	41.16542
69.7777	2485.397	41.6974
69.83181	2493.515	46.6191
69.88591	2513.372	43.36631
69.94002	2519.67	44.53057
69.99413	2550.708	48.82909
70.04823	2558.45	48.42136
70.10233	2591.592	52.49678
70.15644	2594.287	51.77935
70.21055	2625.938	43.88234
70.26466	2632.451	44.87376
70.31876	2665.558	43.97216
70.37286	2665.96	47.85686
70.42697	2705.831	42.35015
70.48108	2710.468	47.99885
70.53518	2745.654	44.41498
70.58929	2751.704	46.42998
70.64339	2785.098	41.8504
70.6975	2793.71	50.01999
70.7516	2827.929	46.59344
70.80571	2844.654	47.98865
70.85982	2873.781	46.07584
70.91393	2894.468	49.45858
70.96803	2918.668	53.20285
71.02213	2940.439	54.02745
71.07624	2969.492	53.95543
71.13035	2994.564	52.58678
71.18445	3020.325	52.34529
71.23856	3047.21	54.66413
71.29266	3066.481	55.71848
71.34677	3096.366	54.85992
71.40087	3115.248	57.85719
71.45498	3152.778	55.01496
71.50909	3168.187	58.58188
71.56319	3204.659	62.04014
71.61729	3223.26	63.10907
71.6714	3262.372	57.86279
71.72551	3273.67	62.5271
71.77962	3322.71	63.46434
71.83372	3329.538	68.33201
71.88783	3381.747	61.90282
71.94193	3392.608	63.47688
71.99604	3448.681	59.56857
72.05014	3461.099	67.5632
72.10425	3505.982	68.67226
72.15836	3526.061	68.34428
72.21246	3563.492	66.48499
72.26657	3585.806	70.84646
72.32067	3631.496	63.40574
72.37478	3653.167	65.17519
72.42889	3697.386	64.01551
72.48299	3717.364	71.2375
72.53709	3753.082	71.16728
72.5912	3773.771	68.15247
72.64531	3808.221	67.12923
72.69942	3834.734	72.98719
72.75352	3863.814	69.98429
72.80762	3889.514	71.58131
72.86173	3913.595	75.0378
72.91584	3941.886	68.41526
72.96994	3964.439	66.7427
73.02405	3987.457	69.60251
73.07816	4005.074	71.09574
73.13226	4036.411	65.7832
73.18636	4050.176	66.95415
73.24047	4080.351	64.54788
73.29458	4082.75	60.84359
73.34869	4120.413	58.13268
73.40279	4121.205	67.29905
73.45689	4147.454	67.67655
73.511	4144.209	72.50441
73.56511	4180.571	60.49972
73.61921	4174.106	72.61612
73.67332	4203.28	63.76155
73.72742	4189.385	72.14008
73.78153	4231.194	65.60163
73.83563	4220.467	67.88813
73.88974	4253.187	60.72388
73.94385	4241.889	64.92291
73.99796	4271.84	64.46964
74.05206	4261.985	63.97112
74.10616	4290.082	64.12098
74.16027	4282.201	63.23246
74.21438	4308.771	56.55338
74.26848	4293.382	61.97113
74.32259	4320.855	56.56162
74.37669	4310.241	53.27036
74.4308	4333.008	58.6389
74.4849	4329.39	61.16624
74.53901	4344.011	64.64919
74.59312	4341.257	66.39495
74.64722	4355.52	58.60003
74.70132	4359.05	58.89188
74.75543	4369.066	57.32521
74.80954	4371.556	58.88564
74.86365	4376.364	58.45827
74.91776	4377.765	56.55369
74.97186	4379.52	59.00533
75.02596	4389.293	58.7942
75.08007	4385.752	55.21534
75.13418	4399.702	53.12827
75.18828	4393.842	56.05256
75.24239	4414.599	51.77333
75.29649	4407.262	57.70997
75.3506	4423.298	60.06455
75.4047	4418.46	66.07681
75.45881	4435.009	54.14604
75.51292	4418.307	65.46127
75.56702	4449.172	59.35106
75.62112	4431.362	69.93266
75.67523	4455.7	59.16143
75.72934	4435.803	55.72672
75.78345	4460.701	57.19762
75.83755	4442.147	59.83319
75.89165	4468.514	57.00428
75.94576	4454.472	55.48534
75.99987	4473.194	52.95095
76.05397	4457.179	58.3364
76.10808	4478.792	54.37197
76.16219	4468.692	63.13985
76.21629	4485.616	59.26842
76.27039	4475.728	58.88172
76.3245	4487.989	60.34824
76.37861	4480.948	60.31856
76.43272	4491.85	60.42911
76.48682	4487.385	60.86511
76.54092	4493.769	60.09043
76.59503	4500.794	63.4898
76.64914	4504.399	63.17721
76.70324	4503.067	56.7728
76.75735	4504.228	55.2106
76.81145	4516.235	59.7817
76.86556	4507.589	61.06451
76.91966	4519.734	56.42366
76.97377	4513.581	61.81793
77.02788	4520.844	60.33832
77.08199	4515.451	57.40573
77.13609	4527.436	53.07963
77.19019	4515.108	55.69807
77.2443	4537.98	55.86845
77.29841	4519.375	61.97902
77.35251	4534.304	58.55187
77.40662	4524.439	62.27893
77.46072	4549.357	56.86018
77.51483	4531.704	56.60183
77.56893	4550.639	64.58976
77.62304	4528.418	67.36053
77.67715	4558.993	59.05634
77.73125	4531.189	62.28596
77.78536	4569.648	54.13292
77.83946	4543.152	57.61464
77.89357	4567.23	57.10273
77.94768	4549.134	59.47417
78.00179	4568.414	50.23109
78.05589	4552.204	52.72889
78.10999	4570.508	48.11555
78.1641	4560.593	52.44136
78.21821	4567.55	62.58187
78.27231	4563.46	66.74416
78.32642	4570.488	61.53317
78.38052	4563.086	61.20122
78.43463	4571.603	56.99832
78.48873	4567.587	62.22016
78.54284	4571.027	66.79208
78.59695	4576.911	60.97635
78.65105	4573.851	58.84432
78.70515	4583.978	61.72509
78.75926	4582.82	62.859
78.81337	4586.339	58.9057
78.86748	4573.954	61.06207
78.92158	4586.81	59.00996
78.97569	4577.255	57.90545
79.02979	4593.056	54.90046
79.0839	4577.559	52.16622
79.138	4592.645	54.36071
79.19211	4571.211	56.26171
79.24622	4594.919	46.8442
79.30032	4574.114	48.28812
79.35442	4600.313	49.88842
79.40853	4575.595	51.30022
79.46264	4610.665	48.53891
79.51675	4583.275	54.69998
79.57085	4609.335	51.40491
79.62495	4578.835	51.81055
79.67906	4610.825	37.88503
79.73317	4578.203	45.73909
79.78727	4605.237	44.84504
79.84138	4581.811	53.70147
79.89548	4611.931	48.68092
79.94959	4583.931	45.76571
80.00369	4612.566	47.60745
80.0578	4593.483	50.54305
80.11191	4615.146	46.01986
80.16602	4597.741	49.58263
80.22012	4614.139	42.328
80.27422	4593.73	49.69393
80.32833	4612.241	52.36161
80.38244	4600.564	60.59097
80.43655	4616.887	54.31984
80.49065	4606.065	51.81588
80.54475	4614.398	56.22619
80.59886	4608.805	58.51591
80.65297	4622.817	55.86306
80.70707	4611.792	56.85157
80.76118	4623.765	54.77739
80.81528	4610.484	54.0557
80.86939	4619.782	46.86459
80.92349	4617.025	56.22418
80.9776	4625.509	58.01602
81.03171	4620.433	57.72787
81.08582	4626.167	56.05218
81.13992	4627.433	55.31286
81.19402	4635.2	52.49298
81.24813	4631.116	55.83426
81.30224	4641.48	58.7168
81.35634	4644.525	56.34359
81.41045	4645.527	55.1806
81.46455	4646.252	56.24124
81.51866	4647.845	57.9648
81.57276	4651.651	55.51632
81.62687	4651.235	53.18466
81.68098	4661.717	55.77491
81.73508	4655.697	55.36889
81.78918	4662.719	52.93287
81.84329	4657.163	54.65793
81.8974	4665.56	57.25336
81.95151	4662.543	61.77015
82.00561	4669.231	57.04876
82.05972	4662.751	60.70281
82.11382	4679.753	61.01369
82.16793	4669.812	59.4229
82.22203	4682.953	55.85164
82.27614	4671.754	54.8426
82.33025	4686.312	52.20628
82.38435	4681.537	53.95126
82.43845	4697.959	57.83682
82.49256	4679.828	63.47167
82.54667	4702.162	54.42299
82.60078	4685.374	59.33071
82.65488	4713.357	55.55528
82.70898	4690.668	61.26001
82.76309	4713.888	60.64904
82.8172	4690.005	63.08123
82.8713	4723.416	55.3634
82.92541	4702.725	63.19899
82.97952	4728.146	60.19998
83.03362	4703.688	58.92887
83.08772	4739.273	57.02682
83.14183	4717.139	59.02911
83.19594	4741.646	61.27411
83.25005	4709.135	61.48347
83.30415	4741.442	53.5224
83.35825	4712.579	66.93712
83.41236	4753.916	55.0751
83.46647	4718.554	61.95481
83.52058	4755.33	52.93563
83.57468	4724.847	64.83089
83.62878	4766.118	51.95807
83.68289	4726.121	60.24027
83.737	4763.953	61.49582
83.7911	4733.479	61.0561
83.84521	4761.255	53.8508
83.89931	4737.177	54.82772
83.95342	4769.324	51.28629
84.00752	4744.475	59.84871
84.06163	4774.619	51.1924
84.11574	4745.277	49.70095
84.16985	4776.243	54.95037
84.22395	4746.825	52.31238
84.27805	4776.268	46.38518
84.33216	4755.632	52.36219
84.38627	4779.898	49.30582
84.44037	4754.602	52.72623
84.49448	4774.333	52.1059
84.54858	4758.617	56.32342
84.60269	4776.509	49.78481
84.65679	4758.299	54.45908
84.7109	4776.987	52.55463
84.76501	4759.86	49.06867
84.81911	4780.178	46.85478
84.87321	4764.662	55.76781
84.92732	4769.416	58.39505
84.98143	4755.836	52.30633
85.03554	4769.854	47.94434
85.08964	4763.89	52.60272
85.14375	4776.271	50.77998
85.19785	4756.571	51.99803
85.25196	4764.352	48.40842
85.30606	4763.326	50.78646
85.36017	4770.882	45.10016
85.41428	4765.978	47.45907
85.46838	4766.591	46.3117
85.52248	4764.534	40.53853
85.57659	4760.128	39.55828
85.6307	4754.297	43.61967
85.68481	4755.367	43.12853
85.73891	4750.779	42.98747
85.79301	4746.685	48.1729
85.84712	4753.403	47.56423
85.90123	4748.454	47.88485
85.95534	4746.333	49.6296
86.00944	4742.771	49.95447
86.06355	4751.869	43.51022
86.11765	4738.357	45.64255
86.17176	4738.261	48.27248
86.22586	4726.266	45.58031
86.27997	4736.175	45.55515
86.33408	4720.123	45.9798
86.38818	4730.517	43.05906
86.44228	4720.425	46.20005
86.49639	4728.95	41.51534
86.5505	4709.277	45.65203
86.60461	4726.278	39.25668
86.65871	4705.593	47.84235
86.71281	4715.978	40.65139
86.76692	4692.065	40.68188
86.82103	4715.933	43.10448
86.87513	4685.337	45.49724
86.92924	4711.164	42.1673
86.98335	4685.124	40.59463
87.03745	4705.237	44.14241
87.09155	4675.126	42.44053
87.14566	4697.184	39.32598
87.19977	4666.128	49.68847
87.25388	4688.784	38.03112
87.30798	4650.736	42.1759
87.36208	4685.974	36.18301
87.41619	4651.154	48.19062
87.4703	4682.213	36.50482
87.5244	4641.709	45.92742
87.57851	4671.263	34.3899
87.63261	4633.207	44.35396
87.68672	4661.667	35.05636
87.74082	4629.345	42.18798
87.79493	4652.769	41.12754
87.84904	4617.595	43.17148
87.90314	4644.764	33.13356
87.95724	4614.523	45.76765
88.01135	4645.95	29.39153
88.06546	4609.848	38.51752
88.11957	4638.808	33.84941
88.17367	4600.43	33.1864
88.22778	4626.939	38.61855
88.28188	4593.961	42.71394
88.33599	4622.044	31.79966
88.39009	4588.852	39.58355
88.4442	4602.175	39.03785
88.49831	4585.816	40.64959
88.55241	4600.008	35.95029
88.60652	4570.288	41.58515
88.66062	4589.305	35.22524
88.71473	4562.775	39.85065
88.76884	4586.122	24.90644
88.82294	4559.573	41.35235
88.87704	4577.455	34.64336
88.93115	4552.706	35.93951
88.98526	4561.489	37.87742
89.03937	4538.948	39.83746
89.09347	4555.431	38.16722
89.14758	4534.842	42.41331
89.20168	4535.577	38.11722
89.25579	4520.374	41.82429
89.30989	4528.158	34.61579
89.364	4518.766	29.88181
89.41811	4519.021	24.70451
89.47221	4504.117	34.19454
89.52631	4510.419	32.90301
89.58042	4500.294	27.15658
89.63453	4502.51	24.92346
89.68864	4495.256	27.48014
89.74274	4494.655	33.06224
89.79684	4487.524	34.38178
89.85095	4485.411	30.58294
89.90506	4482.871	31.97316
89.95916	4477.011	35.1368
90.01327	4475.333	32.06133
90.06738	4463.094	31.92187
90.12148	4463.484	32.56927
90.17558	4455.664	31.05308
90.22969	4454.747	27.02749
90.2838	4445.915	23.74024
90.33791	4447.924	26.15627
90.39201	4433.659	29.13057
90.44611	4435.186	26.94663
90.50022	4421.194	26.80592
90.55433	4431.929	28.91641
90.60843	4410.776	27.18559
90.66254	4421.9	22.22547
90.71664	4402.705	32.96938
90.77075	4411.22	23.52207
90.82485	4392.105	25.83383
90.87896	4405.732	20.62074
90.93307	4379.377	30.13895
90.98717	4395.911	17.49168
91.04128	4370.751	18.98001
91.09538	4384.915	16.34881
91.14949	4360.855	20.66302
91.2036	4383.296	22.73787
91.2577	4350.704	26.10144
91.31181	4369.001	26.83854
91.36591	4334.726	27.59008
91.42002	4363.67	18.99803
91.47413	4332.134	37.75384
91.52823	4356.018	22.24757
91.58234	4320.666	30.2228
91.63644	4341.621	31.18143
91.69055	4307.267	31.67712
91.74465	4336.528	20.7323
91.79876	4300.833	20.50731
91.85287	4329.581	19.4828
91.90697	4284.778	25.35327
91.96107	4320.487	20.52086
92.01518	4278.032	19.59504
92.06929	4313.863	20.72006
92.1234	4270.529	30.49296
92.1775	4299.598	24.73947
92.23161	4262.577	27.78876
92.28571	4291.546	23.09281
92.33982	4251.864	25.92695
92.39392	4277.428	18.25686
92.44803	4241.98	21.75125
92.50214	4271.274	20.54245
92.55624	4242.132	20.3229
92.61034	4260.652	18.03309
92.66445	4222.124	22.16783
92.71856	4245.633	20.54098
92.77267	4222.123	24.36574
92.82677	4236.908	18.26285
92.88087	4207.99	24.39985
92.93498	4230.821	10.43581
92.98909	4202.849	20.78614
93.04319	4214.372	20.96693
93.0973	4192.928	23.51836
93.15141	4205.886	19.35494
93.20551	4186.297	22.47819
93.25961	4198.552	18.88241
93.31372	4180.11	20.77138
93.36783	4182.966	19.16615
93.42194	4159.811	19.6334
93.47604	4168.592	22.68944
93.53014	4158.41	25.20332
93.58425	4164.237	19.47438
93.63836	4143.128	19.6072
93.69246	4147.935	15.35778
93.74657	4132.879	16.52297
93.80067	4135.851	14.47223
93.85478	4128.014	16.35627
93.90888	4129.46	17.5598
93.96299	4120.242	18.22528
94.0171	4116.463	17.49119
94.07121	4105.871	19.59521
94.12531	4110.724	19.66293
94.17941	4091.683	20.96621
94.23352	4107.016	12.96009
94.28763	4087.928	18.90952
94.34174	4102.994	15.2556
94.39584	4059.262	20.85817
94.44994	4075.993	13.41955
94.50405	4073.112	18.68113
94.55816	4049.994	19.94873
94.61226	4067.85	16.74434
94.66637	4064.466	23.81193
94.72047	4027.658	25.75436
94.77458	4035.023	21.38
94.82868	4027.367	19.96786
94.88279	4020.36	20.46772
94.9369	4024.63	10.77716
94.991	4046.362	12.93387
