T[Â°C]	350nm [counts / mm]	S.D.
19.99988	6919.101	39.91405
20.05387	6919.209	28.70033
20.10785	6907.094	27.4481
20.16184	6901.958	24.23462
20.21583	6894.449	35.26485
20.26981	6894.159	33.77649
20.3238	6881.789	33.00697
20.37779	6880.5	31.74173
20.43177	6873.397	33.39034
20.48576	6855.826	38.26837
20.53975	6863.852	34.179
20.59374	6857.589	32.25835
20.64772	6849.51	27.28294
20.70171	6853.509	19.15058
20.7557	6845.748	26.00892
20.80968	6834.38	16.23619
20.86367	6833.073	19.09038
20.91766	6826.409	24.06914
20.97165	6819.425	21.47713
21.02563	6818.258	19.92649
21.07962	6804.953	27.66003
21.13361	6804.421	27.59416
21.1876	6790.793	28.74305
21.24158	6788.761	26.79834
21.29557	6786.787	22.33193
21.34956	6777.88	20.85242
21.40354	6775.351	20.13953
21.45753	6777.832	20.7598
21.51152	6758.533	22.44079
21.5655	6763.168	25.79478
21.61949	6756.97	32.93277
21.67348	6761.012	27.77811
21.72747	6745.726	27.88296
21.78145	6740.746	23.89474
21.83544	6729.494	24.97728
21.88943	6731.794	26.38668
21.94341	6719.73	25.23204
21.9974	6717.954	23.15237
22.05139	6709.769	22.07866
22.10538	6705.563	24.72781
22.15936	6691.391	26.01979
22.21335	6693.614	24.45077
22.26734	6687.751	24.08885
22.32132	6684.926	32.0534
22.37531	6677.229	25.38454
22.4293	6676.385	23.22781
22.48329	6665.117	32.46186
22.53727	6670.458	39.15249
22.59126	6654.344	37.47258
22.64525	6654.178	37.44925
22.69923	6643.974	30.70554
22.75322	6644.534	36.54267
22.80721	6640.959	33.25636
22.86119	6631.414	37.4733
22.91518	6627.711	32.32802
22.96917	6622.929	26.79335
23.02316	6617.577	32.9728
23.07714	6613.139	27.22215
23.13113	6599.544	28.16901
23.18512	6600.315	29.31284
23.23911	6593.453	22.51185
23.29309	6590.404	22.29987
23.34708	6586.169	23.87351
23.40107	6580.889	24.33331
23.45505	6576.951	33.08052
23.50904	6574.41	32.48649
23.56303	6568.478	31.56748
23.61702	6565.054	30.32774
23.671	6555.365	25.15095
23.72499	6547.527	24.43483
23.77898	6545.798	20.95311
23.83296	6539.313	17.85846
23.88695	6534.392	21.42482
23.94094	6527.068	23.6287
23.99492	6520.979	22.13321
24.04891	6517.643	17.70135
24.1029	6508.864	18.74561
24.15689	6502.7	28.06231
24.21087	6507.588	25.47209
24.26486	6502.425	26.91786
24.31885	6499.753	25.56893
24.37284	6491.48	18.7475
24.42682	6484.745	17.88224
24.48081	6481.314	22.09621
24.5348	6476.059	20.48565
24.58878	6467.332	34.21061
24.64277	6467.234	37.35846
24.69676	6451.083	19.43101
24.75075	6452.758	18.21695
24.80473	6449.211	24.14364
24.85872	6440.678	19.01977
24.91271	6431.964	19.8658
24.96669	6429.168	26.79078
25.02068	6421.098	17.94124
25.07467	6414.999	8.023808
25.12865	6411.658	13.94151
25.18264	6413.082	21.24019
25.23663	6398.687	18.13432
25.29062	6398.66	18.39709
25.3446	6394.118	20.82617
25.39859	6382.01	14.05484
25.45258	6385.253	24.75116
25.50657	6378.034	22.41865
25.56055	6371.178	34.39645
25.61454	6373.648	30.20939
25.66853	6362.647	22.88925
25.72251	6358.658	28.44311
25.7765	6345.332	20.29751
25.83049	6348.335	21.62176
25.88447	6353.691	23.64214
25.93846	6343.578	22.2007
25.99245	6332.664	19.96391
26.04644	6329.167	26.59715
26.10042	6315.753	19.59599
26.15441	6315.557	15.42614
26.2084	6311.518	20.89614
26.26238	6309.689	20.75884
26.31637	6295.391	28.68806
26.37036	6289.529	31.44823
26.42435	6289.527	24.92661
26.47833	6287.324	33.12609
26.53232	6278.9	26.25682
26.58631	6276.382	33.03532
26.6403	6276.38	35.29817
26.69428	6262.978	30.20997
26.74827	6263.438	28.5313
26.80226	6258.058	25.36215
26.85624	6251.699	18.49607
26.91023	6251.351	20.57024
26.96422	6242.292	22.01818
27.0182	6237.172	25.32036
27.07219	6225.943	21.93666
27.12618	6221.116	18.84322
27.18017	6224.924	19.90861
27.23415	6219.192	20.9983
27.28814	6209.938	24.80744
27.34213	6201.831	27.12862
27.39611	6194.967	23.26757
27.4501	6189.589	21.09213
27.50409	6190.606	26.59046
27.55807	6184.971	29.273
27.61206	6175.974	25.73328
27.66605	6172.408	23.89391
27.72004	6164.676	25.67427
27.77402	6162.997	26.59204
27.82801	6162.596	22.71003
27.882	6153.303	20.11371
27.93599	6149.981	19.35332
27.98997	6151.145	14.5905
28.04396	6146.048	15.36815
28.09795	6133.831	17.46787
28.15193	6126.348	21.87855
28.20592	6120.163	18.52856
28.25991	6119.258	17.15329
28.31389	6112.332	23.15323
28.36788	6104.826	25.11513
28.42187	6101.434	19.9109
28.47586	6097.859	22.91418
28.52984	6090.706	18.30309
28.58383	6085.892	14.41952
28.63782	6081.627	18.92278
28.6918	6082.789	23.16325
28.74579	6073.096	20.26006
28.79978	6069.657	26.03084
28.85377	6060.958	14.99731
28.90775	6064.804	14.73028
28.96174	6060.628	18.05728
29.01573	6052.351	22.07201
29.06972	6052.829	9.838233
29.1237	6045.314	16.09789
29.17769	6034.973	17.19766
29.23168	6025.617	17.60834
29.28566	6022.679	14.97236
29.33965	6016.058	18.66978
29.39364	6015.642	24.26581
29.44762	6008.835	24.64902
29.50161	6005.116	23.19473
29.5556	5995.895	21.94819
29.60959	5993.29	15.85681
29.66357	5985.298	16.37366
29.71756	5980.48	17.63836
29.77155	5980.789	23.05346
29.82553	5975.398	20.34959
29.87952	5961.907	21.07636
29.93351	5965.736	23.287
29.9875	5966.238	30.5441
30.04148	5959.36	25.42426
30.09547	5953.384	21.74514
30.14946	5944.618	23.96725
30.20344	5935.359	21.82709
30.25743	5934.66	24.79243
30.31142	5928.341	18.14621
30.36541	5920.981	13.48127
30.41939	5918.416	12.62797
30.47338	5914.444	13.13564
30.52737	5906.771	21.40935
30.58135	5906.273	22.42694
30.63534	5902.062	21.17765
30.68933	5899.387	20.18231
30.74332	5891.067	18.45007
30.7973	5878.016	15.10304
30.85129	5877.423	23.72845
30.90528	5876.625	23.91709
30.95926	5870.081	23.18726
31.01325	5865.334	21.86168
31.06724	5860.051	19.34097
31.12123	5861.826	12.77853
31.17521	5853.391	12.8221
31.2292	5846.236	17.76377
31.28319	5836.499	15.26
31.33717	5828.625	15.53999
31.39116	5826.875	13.64032
31.44515	5822.447	20.31932
31.49914	5817.512	21.0527
31.55312	5815.44	17.32631
31.60711	5812.757	13.85444
31.6611	5810.963	13.27331
31.71508	5802.784	15.05801
31.76907	5793.268	14.79909
31.82306	5794.261	18.50825
31.87704	5790.54	19.54997
31.93103	5781.613	19.8916
31.98502	5773.722	24.15597
32.03901	5770.645	19.25077
32.09299	5764.128	20.90232
32.14698	5760.537	14.54749
32.20097	5755.659	12.6579
32.25496	5747.653	9.209361
32.30894	5738.671	11.12926
32.36293	5742.77	10.56166
32.41692	5736.95	12.3529
32.47091	5728.745	10.02052
32.52489	5722.984	11.91604
32.57888	5720.506	16.88896
32.63287	5718.521	20.55613
32.68685	5712.231	19.65627
32.74084	5704.768	15.97445
32.79483	5711.365	20.90209
32.84881	5703.286	20.25677
32.9028	5689.759	22.39909
32.95679	5686.707	26.41363
33.01078	5679.639	20.31011
33.06476	5673.369	16.84081
33.11875	5672.183	15.41701
33.17274	5664.725	16.14998
33.22672	5663.245	20.38147
33.28071	5655.886	25.19787
33.3347	5658.668	14.03923
33.38868	5644.066	15.97315
33.44267	5646.898	12.56154
33.49666	5634.361	10.47594
33.55065	5639.495	13.05905
33.60463	5629.982	8.869865
33.65862	5623.646	20.41683
33.71261	5615.61	23.15868
33.76659	5616.003	20.38092
33.82058	5608.964	23.73988
33.87457	5608.632	20.53031
33.92855	5599.276	21.18041
33.98254	5595.352	17.304
34.03653	5590.515	18.3872
34.09052	5586.365	22.31945
34.1445	5579.933	25.61896
34.19849	5570.943	21.5834
34.25248	5567.679	16.38556
34.30647	5570.173	9.792876
34.36045	5558.534	8.263055
34.41444	5563.94	16.62053
34.46843	5551.323	14.6452
34.52242	5547.355	14.37385
34.5764	5539.785	11.08591
34.63039	5533.182	16.67433
34.68438	5528.915	15.55442
34.73836	5530.411	11.2125
34.79235	5518.134	15.21223
34.84634	5515.401	16.9146
34.90033	5506.211	20.29239
34.95431	5511.921	21.59914
35.0083	5503.04	26.94281
35.06229	5499.699	21.8039
35.11627	5493.508	19.94111
35.17026	5485.723	13.76179
35.22425	5480.697	13.59441
35.27823	5476.257	18.94445
35.33222	5469.987	16.34678
35.38621	5473.131	10.12187
35.4402	5471.912	11.94955
35.49418	5463.986	11.98566
35.54817	5452.089	11.07135
35.60216	5444.113	12.39538
35.65614	5440.83	10.71376
35.71013	5435.716	11.59446
35.76412	5431.186	12.50726
35.8181	5427.962	12.08749
35.87209	5425.997	9.811681
35.92608	5418.03	8.876307
35.98007	5411.213	16.56084
36.03405	5403.248	15.64316
36.08804	5402.511	18.44469
36.14203	5403.469	15.21661
36.19601	5398.93	14.28625
36.25	5392.383	15.70949
36.30399	5395.175	14.72823
36.35798	5378.47	24.95276
36.41196	5376.823	13.95711
36.46595	5369.787	16.78487
36.51994	5370.229	12.98066
36.57393	5359.506	12.16911
36.62791	5355.955	11.54583
36.6819	5349.023	12.68092
36.73589	5351.467	11.72031
36.78988	5336.588	15.02114
36.84386	5348.338	12.77783
36.89785	5336.548	12.69141
36.95184	5326.675	17.18391
37.00582	5322.192	11.62347
37.05981	5325.861	19.47114
37.1138	5315.539	24.26028
37.16778	5312.691	19.10848
37.22177	5304.066	22.89252
37.27576	5306.01	24.06516
37.32975	5299.893	24.42166
37.38373	5298.193	23.58001
37.43772	5281.076	15.84761
37.49171	5287.919	12.81332
37.54569	5283.598	12.69406
37.59968	5278.729	12.57203
37.65367	5269.458	7.965265
37.70765	5265.711	9.215501
37.76164	5256.622	11.5918
37.81563	5265.422	12.00439
37.86962	5252.25	8.538523
37.9236	5253.033	2.946632
37.97759	5245.239	2.914201
38.03158	5239.606	12.8901
38.08556	5232.16	8.78685
38.13955	5232.945	12.399
38.19354	5221.559	12.26039
38.24752	5226.732	17.32825
38.30151	5215.186	16.32841
38.3555	5216.872	20.55057
38.40949	5203.764	12.99923
38.46347	5198.997	13.13227
38.51746	5192.613	14.18042
38.57145	5191.696	14.18175
38.62543	5188.147	17.26573
38.67942	5185.158	13.04748
38.73341	5179.196	10.57438
38.7874	5179.161	9.946142
38.84138	5171.524	8.441387
38.89537	5172.073	5.124042
38.94936	5162.317	3.20386
39.00335	5164.095	12.01451
39.05733	5152.862	9.918145
39.11132	5142.46	14.38665
39.16531	5137	14.27405
39.2193	5135.563	13.64684
39.27328	5127.122	13.34546
39.32727	5132.354	10.35845
39.38126	5124.562	12.49279
39.43524	5122.572	12.28471
39.48923	5115.69	8.812267
39.54322	5103.464	11.18397
39.5972	5106.838	9.953019
39.65119	5099.023	5.106605
39.70518	5093.6	7.149491
39.75917	5094.517	11.03695
39.81315	5092.306	10.6828
39.86714	5083.218	8.269266
39.92113	5076.186	11.05933
39.97511	5067.608	15.50779
40.0291	5070.371	9.118423
40.08309	5061.087	4.824117
40.13707	5060.956	13.11222
40.19106	5052.754	18.15489
40.24505	5045.997	9.330548
40.29904	5037.336	11.61017
40.35302	5042.097	11.43735
40.40701	5029.011	14.601
40.461	5036.343	11.4925
40.51498	5021.343	6.3421
40.56897	5026.229	12.78275
40.62296	5016.964	15.66526
40.67694	5012.407	12.84993
40.73093	5007.002	11.45625
40.78492	5008.33	10.50303
40.83891	4996.627	8.620153
40.89289	4997.872	12.03917
40.94688	4985.734	15.2021
41.00087	4984.617	12.22705
41.05486	4971.36	19.32955
41.10884	4987.851	11.24823
41.16283	4969.41	3.697774
41.21682	4976.688	16.26862
41.27081	4961.094	12.25198
41.32479	4957.861	11.57647
41.37878	4949.986	11.07623
41.43277	4952.502	16.01361
41.48676	4937.687	15.71044
41.54074	4948.82	9.180628
41.59473	4936.393	9.262194
41.64872	4937.814	4.713995
41.7027	4924.235	4.988311
41.75669	4926.629	10.20291
41.81068	4916.184	8.667229
41.86466	4921.376	4.348732
41.91865	4914.877	2.408266
41.97264	4910.19	7.379392
42.02663	4902.745	8.428795
42.08061	4900.451	4.481658
42.1346	4889.739	9.116279
42.18859	4895.806	6.513889
42.24257	4882.77	11.49195
42.29656	4882.066	13.74135
42.35055	4872.485	13.28914
42.40453	4870.071	8.190875
42.45852	4863.521	12.18731
42.51251	4862.763	14.31058
42.5665	4854.826	13.70321
42.62048	4853.614	13.16562
42.67447	4846.928	14.36103
42.72846	4852.801	9.257939
42.78244	4837.207	8.850173
42.83643	4837.653	4.981117
42.89042	4837.113	6.353957
42.9444	4829.394	10.37001
42.99839	4820.159	6.622127
43.05238	4814.75	11.37361
43.10637	4809.776	13.30486
43.16035	4804.828	9.870074
43.21434	4797.133	3.529302
43.26833	4795.629	5.475671
43.32232	4794.745	4.401212
43.3763	4784.263	3.3477
43.43029	4780.27	1.843507
43.48428	4776.62	4.026507
43.53827	4774.898	3.431893
43.59225	4765.113	1.860225
43.64624	4765.637	2.660959
43.70023	4760.181	8.186291
43.75421	4755.535	6.559082
43.8082	4748.468	13.54349
43.86219	4753.772	12.44808
43.91618	4739.316	13.2434
43.97016	4744.634	8.551145
44.02415	4728.096	6.322168
44.07814	4730.435	7.62646
44.13212	4723.782	5.311063
44.18611	4723.906	9.628701
44.2401	4710.838	13.44141
44.29408	4713.321	7.442699
44.34807	4698.717	9.023101
44.40206	4706.18	11.00351
44.45605	4695.76	12.89552
44.51003	4694.171	12.54757
44.56402	4687.934	11.80728
44.61801	4691.663	14.68625
44.67199	4677.451	13.57283
44.72598	4680.732	7.280935
44.77997	4673.291	8.8901
44.83395	4678.483	21.1052
44.88794	4662.872	17.20276
44.94193	4663.962	12.21768
44.99592	4646.585	6.737392
45.0499	4656.89	14.65718
45.10389	4644.217	6.49715
45.15788	4647.622	16.00368
45.21186	4638.625	10.5717
45.26585	4637.987	5.750926
45.31984	4624.249	9.508565
45.37383	4632.85	2.133979
45.42781	4621.206	2.238204
45.4818	4626.524	2.953284
45.53579	4611.126	3.283107
45.58978	4609.556	8.01001
45.64376	4601.501	7.845896
45.69775	4604.74	12.4832
45.75174	4592.386	8.204902
45.80573	4604.44	11.93601
45.85971	4585.999	10.85894
45.9137	4596.547	4.815617
45.96769	4580.554	8.090555
46.02167	4578.451	14.6834
46.07566	4568.264	14.75442
46.12965	4570.754	12.61812
46.18363	4562.419	9.958551
46.23762	4559.887	10.91866
46.29161	4554.152	11.69414
46.3456	4560.929	5.614642
46.39958	4546.782	8.764432
46.45357	4552.342	10.57632
46.50756	4543.113	8.191904
46.56154	4544.01	10.46567
46.61553	4531.792	5.963553
46.66952	4533.826	7.145596
46.7235	4518.428	11.21069
46.77749	4514.947	11.48009
46.83148	4514.179	10.2959
46.88547	4507.54	12.57732
46.93945	4501.515	9.098666
46.99344	4500.951	10.78612
47.04743	4493.966	8.37973
47.10141	4488.597	2.441375
47.1554	4484.139	2.68733
47.20939	4478.138	2.742274
47.26337	4474.74	3.822096
47.31736	4473.329	3.279212
47.37135	4470.938	4.9037
47.42534	4464.186	3.102557
47.47932	4464.707	3.829438
47.53331	4457.517	8.560788
47.5873	4453.118	1.786345
47.64128	4444.351	2.514416
47.69527	4449.807	6.148351
47.74926	4437.642	7.181985
47.80325	4440.814	5.337481
47.85723	4432.064	5.52844
47.91122	4426.207	8.605513
47.96521	4417.267	14.32765
48.0192	4425.056	12.84096
48.07318	4408.015	8.041145
48.12717	4415.86	10.07876
48.18116	4405.779	9.785082
48.23515	4401.65	4.206628
48.28913	4392.196	4.986892
48.34312	4391.512	4.338606
48.39711	4381.509	2.272729
48.45109	4389.018	6.685953
48.50508	4378.958	7.833545
48.55907	4380.673	7.797217
48.61305	4368.731	6.064393
48.66704	4373.716	11.93811
48.72103	4359.339	5.614162
48.77502	4362.411	9.904836
48.829	4349.253	2.761808
48.88299	4356.776	13.26894
48.93698	4345.99	9.050309
48.99096	4348.993	7.943
49.04495	4333.617	10.67253
49.09894	4347.072	10.89522
49.15292	4332.848	11.48816
49.20691	4329.54	12.04894
49.2609	4322.271	12.32786
49.31489	4320.542	8.792656
49.36887	4313.832	7.593179
49.42286	4316.19	6.798578
49.47685	4306.404	2.712185
49.53083	4311.1	11.41284
49.58482	4292.923	5.378905
49.63881	4302.236	8.253132
49.69279	4288.35	11.27378
49.74678	4292.367	2.86886
49.80077	4279.222	9.451092
49.85476	4286.052	9.850639
49.90874	4270.395	11.56194
49.96273	4275.721	15.45886
50.01672	4260.041	12.32887
50.07071	4263.835	14.23846
50.12469	4252.346	11.68383
50.17868	4261.237	4.677433
50.23267	4253.399	1.288675
50.28666	4257.182	0.3513836
50.34064	4244.921	5.933427
50.39463	4243.729	5.959124
50.44862	4231.099	5.919472
50.5026	4236.877	7.090557
50.55659	4227.115	7.575583
50.61058	4223.587	9.061365
50.66457	4217.707	9.080032
50.71855	4214.702	7.922479
50.77254	4212.661	5.127237
50.82653	4203.396	6.180516
50.88051	4201.693	7.262099
50.9345	4195.31	9.701753
50.98849	4196.439	1.504709
51.04247	4180.919	3.417263
51.09646	4184.09	1.880052
51.15045	4174.286	2.865599
51.20444	4176.699	3.505401
51.25842	4171.254	4.224556
51.31241	4173.181	4.235461
51.3664	4162.271	4.555846
51.42038	4166.371	2.655473
51.47437	4151.603	6.389344
51.52836	4157.426	6.639693
51.58234	4137.754	4.421346
51.63633	4144.707	9.957972
51.69032	4136.325	6.46812
51.74431	4139.597	4.392746
51.79829	4131.723	7.66396
51.85228	4132.01	8.323874
51.90627	4116.451	3.736904
51.96025	4128.176	7.672319
52.01424	4115.494	13.87233
52.06823	4116.339	8.585463
52.12222	4098.199	5.80165
52.1762	4109.017	1.839249
52.23019	4093.291	1.69096
52.28418	4096.86	9.118063
52.33817	4086.88	7.316311
52.39215	4091.464	5.457317
52.44614	4081.032	6.295474
52.50013	4083.634	6.84056
52.55412	4070.621	8.320272
52.6081	4080.211	6.311695
52.66209	4065.055	2.581272
52.71608	4071.156	7.428509
52.77006	4056.798	6.617596
52.82405	4057.946	6.30711
52.87804	4049.274	6.293397
52.93202	4056.142	11.73108
52.98601	4041.27	9.123705
53.04	4042.729	9.626884
53.09399	4035.227	5.296913
53.14797	4041.802	4.095046
53.20196	4025.061	1.691976
53.25595	4033.887	1.439393
53.30993	4021.85	3.512605
53.36392	4030.699	5.112792
53.41791	4014.61	3.884049
53.47189	4017.165	10.53587
53.52588	4003.186	3.810479
53.57987	4010.806	9.171803
53.63386	3997.809	10.07888
53.68784	4000.401	3.241737
53.74183	3986.673	9.237181
53.79582	3994.499	5.674708
53.8498	3981.225	10.13178
53.90379	3986.922	8.678601
53.95778	3972.14	6.785391
54.01176	3973.055	9.220585
54.06575	3965.929	6.790909
54.11974	3970.49	3.686325
54.17373	3961.481	3.360294
54.22771	3957.74	5.777318
54.2817	3949.942	1.588943
54.33569	3952.246	3.22491
54.38968	3949.871	2.33569
54.44366	3945.249	2.521022
54.49765	3935.746	3.336707
54.55164	3930.615	4.39928
54.60563	3928.091	3.484073
54.65961	3922.267	7.517821
54.7136	3921.743	6.825727
54.76759	3913.613	5.423537
54.82157	3911.078	8.055198
54.87556	3910.254	8.397713
54.92955	3905.692	10.27518
54.98354	3893.133	4.257643
55.03752	3899.374	3.865342
55.09151	3891.365	1.781219
55.1455	3894.17	1.998487
55.19948	3878.63	5.016839
55.25347	3881.254	5.687095
55.30746	3867.849	5.078239
55.36145	3877.575	3.705212
55.41543	3865.588	5.4586
55.46942	3874.981	4.084385
55.52341	3859.454	3.170873
55.57739	3866.758	6.50578
55.63138	3849.317	6.218465
55.68537	3857.836	6.910299
55.73935	3840.978	3.355981
55.79334	3849.243	3.18836
55.84733	3835.441	5.546053
55.90132	3839.894	8.551995
55.9553	3822.234	6.42906
56.00929	3838.338	6.434389
56.06328	3821.138	3.50024
56.11726	3830.416	5.363786
56.17125	3816.012	7.001203
56.22524	3815.276	4.442226
56.27922	3806.243	3.657954
56.33321	3811.794	7.613843
56.3872	3802.513	8.049018
56.44119	3800.268	6.520426
56.49517	3790.529	6.061522
56.54916	3799.526	6.538316
56.60315	3782.164	9.461095
56.65714	3791.975	8.770179
56.71112	3777.647	9.684501
56.76511	3787.108	10.20854
56.8191	3774.424	11.53806
56.87309	3776.571	17.25765
56.92707	3763.021	12.5818
56.98106	3761.373	11.1492
57.03505	3751.884	12.8675
57.08903	3767.045	4.02959
57.14302	3749.461	4.546684
57.19701	3753.944	6.491986
57.251	3743.02	5.201921
57.30498	3746.326	4.295258
57.35897	3734.688	4.629689
57.41296	3736.802	10.38465
57.46694	3727.556	9.44888
57.52093	3729.537	6.53713
57.57492	3715.502	3.066502
57.6289	3726.505	9.017134
57.68289	3714	8.163564
57.73688	3717.552	7.221637
57.79087	3705.917	6.959579
57.84485	3706.52	6.936058
57.89884	3698.229	7.953823
57.95283	3697.323	6.515984
58.00681	3692.692	8.543118
58.0608	3682.986	10.02238
58.11479	3686.217	4.118763
58.16877	3680.063	4.198048
58.22276	3682.795	3.809561
58.27675	3665.772	4.708726
58.33074	3681.169	5.388676
58.38472	3666.429	4.536129
58.43871	3670.211	7.714316
58.4927	3651.659	6.849298
58.54668	3662.411	2.061927
58.60067	3647.203	2.877731
58.65466	3653.577	6.007893
58.70864	3643	4.581947
58.76263	3645.578	5.634056
58.81662	3632.363	2.66783
58.87061	3637.362	4.866794
58.92459	3622.239	3.601253
58.97858	3638.051	3.492698
59.03257	3620.308	4.696764
59.08656	3625.188	4.343343
59.14054	3606.615	3.299329
59.19453	3618.495	2.979255
59.24852	3605.444	4.267663
59.30251	3613.828	6.168519
59.35649	3599.359	4.753888
59.41048	3607.338	2.007977
59.46447	3593.673	4.309523
59.51845	3599.859	5.690192
59.57244	3589.986	3.187212
59.62643	3602.203	3.052324
59.68042	3583.706	3.484029
59.7344	3590.039	6.38727
59.78839	3575.584	3.439728
59.84238	3579.073	7.074604
59.89636	3571.664	3.793213
59.95035	3573.805	2.715672
60.00434	3564.236	3.227631
60.05832	3559.797	4.142143
60.11231	3556.761	2.883529
60.1663	3551.673	1.421054
60.22029	3553.048	3.435978
60.27427	3544.61	5.518561
60.32826	3544.187	8.951903
60.38225	3531.176	11.2712
60.43623	3538.539	7.00536
60.49022	3525.632	9.692136
60.54421	3530.703	9.866493
60.59819	3522.162	12.59974
60.65218	3526.269	11.95068
60.70617	3505.589	7.577499
60.76016	3526.822	6.821866
60.81414	3507.049	12.09048
60.86813	3517.374	5.768328
60.92212	3500.231	3.730266
60.9761	3505.859	6.179663
61.03009	3492.691	4.970863
61.08408	3501.674	5.723378
61.13807	3488.468	1.496553
61.19205	3500.656	9.408251
61.24604	3483.555	5.958124
61.30003	3492.65	7.415896
61.35402	3477.604	5.423758
61.408	3480.881	7.975316
61.46199	3469.663	1.875212
61.51598	3468.217	8.101043
61.56997	3464.195	10.16051
61.62395	3466.669	8.279196
61.67794	3459.517	4.541143
61.73193	3456.513	4.035258
61.78591	3452.81	6.086205
61.8399	3450.256	6.741668
61.89389	3445.807	7.369412
61.94787	3442.945	7.994109
62.00186	3442.632	6.1986
62.05585	3433.107	5.559957
62.10984	3437.839	5.693954
62.16382	3435.184	6.183701
62.21781	3431.102	3.873349
62.2718	3418.48	5.890714
62.32578	3426.168	7.17999
62.37977	3417.531	12.25521
62.43376	3427.89	9.508035
62.48774	3412.983	6.91168
62.54173	3413.845	5.585164
62.59572	3402.383	8.032332
62.64971	3410.91	5.986195
62.70369	3395.492	7.605163
62.75768	3406.572	5.102342
62.81167	3389.645	1.347267
62.86565	3394.933	3.517318
62.91964	3377.756	2.978165
62.97363	3394.967	5.069201
63.02761	3378.133	7.387702
63.0816	3386.692	1.249204
63.13559	3374.333	4.600368
63.18958	3380.99	7.394171
63.24356	3367.737	2.883066
63.29755	3375.532	1.431165
63.35154	3363.236	4.461195
63.40553	3373.189	4.350616
63.45951	3365.328	4.249209
63.5135	3371.099	2.266545
63.56749	3357.687	2.308976
63.62148	3371.064	5.074016
63.67546	3359.049	1.446487
63.72945	3367.158	4.669003
63.78344	3352.066	2.663218
63.83742	3358.51	4.602131
63.89141	3344.068	3.096181
63.9454	3351.506	1.513522
63.99939	3340.199	4.618422
64.05338	3355.148	6.527921
64.10736	3339.732	5.15603
64.16135	3348.424	12.69603
64.21533	3335.55	7.414286
64.26932	3342.197	3.468164
64.32331	3330.01	7.197528
64.3773	3339.447	6.622043
64.43128	3329.031	8.567014
64.48527	3336.573	8.256054
64.53925	3328.272	7.417981
64.59325	3336.537	4.647573
64.64723	3324.552	8.857486
64.70122	3326.839	8.594457
64.7552	3319.685	7.261776
64.80919	3320.92	6.915167
64.86318	3314.396	9.662688
64.91717	3316.935	10.82464
64.97115	3315.767	7.143544
65.02514	3309.046	5.868036
65.07912	3312.866	7.353001
65.13312	3311.34	7.110496
65.1871	3315.691	3.650578
65.24109	3307.835	5.688355
65.29507	3311.37	7.878698
65.34906	3303.746	5.302342
65.40305	3316.331	7.533555
65.45704	3300.434	8.534392
65.51102	3314.468	3.256684
65.56501	3303.5	6.91734
65.619	3314.738	4.067206
65.67299	3303.787	6.393301
65.72697	3311.948	4.336841
65.78096	3301.485	4.599159
65.83495	3313.041	5.959289
65.88893	3301.023	4.704782
65.94292	3313.927	8.858135
65.99691	3298.898	8.819044
66.0509	3317.129	8.430266
66.10488	3306.469	6.362533
66.15887	3323.886	6.632003
66.21286	3306.082	6.070302
66.26685	3323.676	6.074778
66.32083	3313.321	12.74978
66.37482	3324.428	10.71371
66.4288	3313.322	6.887747
66.4828	3332.939	11.46976
66.53678	3322.58	10.99877
66.59077	3338.906	5.687281
66.64475	3331.505	5.697039
66.69874	3338.016	13.52988
66.75273	3337.024	6.643942
66.80672	3350.245	9.447848
66.8607	3343.784	6.713923
66.91469	3362.22	9.399995
66.96867	3351.829	7.290102
67.02267	3374.592	8.537008
67.07665	3362.013	7.950128
67.13064	3371.753	10.48699
67.18462	3368.216	11.6005
67.23861	3385.402	11.4558
67.2926	3378.766	11.23015
67.34659	3393.022	8.249754
67.40057	3388.046	8.594523
67.45456	3408.7	6.007252
67.50854	3402.003	11.04482
67.56254	3419.06	7.367918
67.61652	3415.183	8.446662
67.67051	3436.179	6.806259
67.72449	3432.314	12.67806
67.77848	3445.419	13.91937
67.83247	3444.93	14.3918
67.88646	3460.218	13.04423
67.94044	3464.013	13.36538
67.99443	3476.356	9.182948
68.04842	3481.877	11.05058
68.10241	3495.084	11.797
68.15639	3503.594	14.64516
68.21038	3521.422	13.99675
68.26437	3530.711	11.03404
68.31835	3542.908	10.29351
68.37234	3557.908	15.86537
68.42633	3560.56	19.51633
68.48032	3577.846	17.12228
68.5343	3590.666	17.90321
68.58829	3607.556	15.99542
68.64228	3614.971	21.02355
68.69627	3633.686	21.19095
68.75025	3637.95	23.60269
68.80424	3669.193	21.30647
68.85822	3666.456	27.70504
68.91222	3705.461	21.95738
68.9662	3701.706	20.32982
69.02019	3738.064	24.06785
69.07417	3747.218	24.16015
69.12816	3771.843	26.52245
69.18215	3777.844	27.94211
69.23614	3815.761	27.50208
69.29012	3818.471	28.05103
69.34411	3859.18	26.80106
69.39809	3862.205	25.52627
69.45209	3904.732	29.79056
69.50607	3910.575	31.31398
69.56006	3952.267	30.62515
69.61404	3956.434	36.66367
69.66803	3999.606	36.91196
69.72202	4003.808	40.94211
69.77601	4054.471	37.34634
69.82999	4063.709	37.13791
69.88398	4102.47	41.10311
69.93797	4114.013	42.61084
69.99196	4166.346	33.8959
70.04594	4176.552	36.12598
70.09993	4227.245	41.04282
70.15392	4231.593	38.06477
70.2079	4297.386	38.12246
70.26189	4305.589	39.56154
70.31588	4363.233	41.24891
70.36987	4376.753	38.83185
70.42385	4439.544	37.30061
70.47784	4455.607	37.10485
70.53183	4513.147	53.6746
70.58582	4535.389	53.18495
70.6398	4583.269	42.76155
70.69379	4612.041	49.89995
70.74777	4668.575	45.29304
70.80177	4695.712	51.90636
70.85575	4767.248	50.18695
70.90974	4785.006	51.04533
70.96372	4837.967	49.03604
71.01771	4870.186	53.28119
71.0717	4930.942	48.97311
71.12569	4966.009	47.76877
71.17967	5019.434	51.5399
71.23366	5056.078	49.18914
71.28764	5101.483	42.44487
71.34164	5133.417	45.16335
71.39562	5180.629	46.11516
71.44961	5225.218	45.5043
71.50359	5259.268	46.55877
71.55758	5312.628	45.75415
71.61157	5333.957	47.90553
71.66556	5396.019	45.61314
71.71954	5408.753	55.76297
71.77353	5486.568	54.39561
71.82751	5500.452	55.74192
71.88151	5571.886	51.5339
71.93549	5595.848	56.5346
71.98948	5665.903	54.35098
72.04346	5686.048	54.70529
72.09745	5761.206	55.86128
72.15144	5778.611	47.16785
72.20543	5864.4	48.19475
72.25941	5875.562	44.42055
72.3134	5948.206	44.59084
72.36739	5960.952	44.90356
72.42138	6035.672	51.75412
72.47536	6052.556	48.31557
72.52935	6117.608	42.83915
72.58334	6131.912	45.54889
72.63732	6196.574	34.66907
72.69131	6206.014	41.38479
72.7453	6261.94	40.18835
72.79929	6277.869	38.7491
72.85327	6345.667	36.14444
72.90726	6345.136	39.03129
72.96125	6407.743	32.02646
73.01524	6409.569	21.53809
73.06922	6466.357	32.09553
73.12321	6457.621	32.64552
73.17719	6516.834	19.48153
73.23119	6504.745	28.33352
73.28517	6556.136	30.32706
73.33916	6552.271	24.96793
73.39314	6604.375	24.44456
73.44713	6596.345	31.51494
73.50112	6635.142	22.12998
73.55511	6630.708	28.40523
73.60909	6666.254	31.50272
73.66308	6669.542	28.98949
73.71706	6690.455	23.24849
73.77106	6703.553	22.22456
73.82504	6721.498	23.29247
73.87903	6734.031	18.00577
73.93301	6747.617	14.04532
73.987	6761.903	16.10546
74.04099	6767.039	16.77825
74.09498	6781.735	18.31363
74.14896	6778.507	17.5988
74.20295	6807.781	15.81659
74.25694	6795.479	23.00041
74.31093	6820.34	20.77147
74.36491	6820.354	30.55286
74.4189	6850.986	25.46503
74.47289	6824.37	35.59042
74.52687	6863.115	19.19931
74.58086	6839.446	25.39099
74.63485	6880.677	16.50664
74.68884	6848.67	22.35146
74.74282	6887.884	12.13137
74.79681	6878.088	6.734128
74.8508	6908.435	17.40652
74.90479	6887.179	23.14433
74.95877	6930.233	21.36865
75.01276	6899.059	14.98058
75.06674	6933.683	7.316699
75.12074	6912.645	16.51594
75.17472	6949.771	15.68602
75.22871	6922.117	22.16083
75.28269	6958.718	15.5406
75.33668	6928.631	11.56384
75.39067	6975.047	12.26147
75.44466	6947.727	9.00482
75.49864	6977.222	12.59106
75.55263	6956.95	13.00923
75.60661	7002.844	17.22083
75.66061	6973.825	9.978886
75.71459	6994.786	21.4451
75.76858	6968.021	11.11178
75.82256	7012.107	6.328033
75.87655	6979.174	8.958373
75.93054	7018.779	12.16577
75.98453	6986.391	14.9696
76.03851	7029.764	21.78912
76.0925	7003.438	20.61804
76.14648	7017.787	12.59432
76.20048	7005.532	11.37268
76.25446	7011.77	12.03656
76.30845	7010.144	15.98862
76.36243	7015.319	19.35283
76.41642	7019.133	17.28317
76.47041	7013.087	13.46613
76.5244	7033.175	14.19625
76.57838	7006.311	12.87679
76.63237	7030.785	21.78511
76.68636	7009.139	15.12423
76.74035	7037.419	16.1018
76.79433	7006.627	15.71779
76.84832	7038.457	10.44068
76.90231	7002.271	15.16292
76.95629	7053.47	17.34793
77.01028	7019.861	10.53806
77.06427	7050.314	14.70224
77.11826	7014.613	13.18716
77.17224	7048.89	6.312314
77.22623	7024.493	15.92917
77.28022	7050.624	13.00527
77.33421	7013.29	12.27986
77.38819	7050.126	13.9778
77.44218	7016.491	7.539686
77.49616	7050.634	12.84734
77.55016	7022.617	14.83371
77.60414	7058.314	12.78872
77.65813	7027.481	12.0454
77.71211	7066.88	12.42383
77.7661	7020.083	14.26895
77.82009	7046.645	4.029004
77.87408	7020.169	3.99944
77.92806	7063.795	15.15885
77.98205	7026.196	6.10053
78.03603	7053.928	13.4556
78.09003	7030.29	2.957473
78.14401	7063.696	14.1705
78.198	7037.66	6.917752
78.25198	7046.779	12.93842
78.30597	7034.92	9.176509
78.35996	7038.385	10.03243
78.41395	7034.899	10.22519
78.46793	7020.655	7.95374
78.52192	7029.703	6.924045
78.5759	7026.742	16.02687
78.6299	7030.197	17.083
78.68388	7011.063	11.37385
78.73787	7024.262	10.40357
78.79185	6997.606	7.241424
78.84584	7017.875	8.367218
78.89983	6987.566	11.5911
78.95382	7026.831	11.68904
79.0078	6996.354	9.030636
79.06179	7023.674	15.21989
79.11578	6989.618	11.94344
79.16977	7022.442	14.57796
79.22375	6981.314	20.64255
79.27774	7017.722	17.34293
79.33173	6979.21	28.94238
79.38571	7019.44	13.20889
79.4397	6984.318	11.25438
79.49369	7010.698	15.15545
79.54768	6984.15	11.86473
79.60166	7029.34	10.07778
79.65565	6982.643	6.794658
79.70964	7024.88	16.01128
79.76363	6978.392	12.86713
79.81761	7019.939	13.67963
79.8716	6981.349	15.98498
79.92558	7012.438	17.07725
79.97958	6980.64	20.52868
80.03356	6994.302	12.77109
80.08755	6970.978	15.99135
80.14153	6982.619	15.09787
80.19552	6973.068	12.88693
80.24951	6966.585	10.20113
80.3035	6971.263	9.26021
80.35748	6959.519	12.12082
80.41147	6966.348	11.21584
80.46545	6953.801	9.20276
80.51945	6970.313	8.903825
80.57343	6947.284	17.05471
80.62742	6971.75	14.10842
80.6814	6928.719	16.16557
80.73539	6980.921	20.09788
80.78938	6937.167	18.24912
80.84337	6976.88	8.448819
80.89735	6932.572	5.737048
80.95134	6981.354	14.79872
81.00533	6940.584	7.19638
81.05932	6973.612	9.527958
81.1133	6928.227	9.848589
81.16729	6970.288	15.91641
81.22128	6928.604	10.51445
81.27526	6975.113	12.62206
81.32925	6936.898	12.68788
81.38324	6953.878	10.78473
81.43723	6918.527	14.06946
81.49121	6969.463	21.40203
81.5452	6928.129	19.90565
81.59919	6965.297	21.37207
81.65318	6921.099	23.19395
81.70716	6952.773	18.54788
81.76115	6924.261	21.06967
81.81513	6966.863	10.39277
81.86913	6925.735	19.29935
81.92311	6957.786	16.7533
81.9771	6929.204	14.68314
82.03108	6946.482	15.34382
82.08507	6928.821	21.74367
82.13906	6939.548	19.21572
82.19305	6934.846	8.901406
82.24703	6931.976	9.030122
82.30102	6929.576	12.06261
82.355	6925.265	14.58322
82.409	6932.137	20.49217
82.46298	6910.491	14.97943
82.51697	6937.427	13.47418
82.57095	6903.817	20.61962
82.62494	6933.402	14.23506
82.67893	6906.303	16.57985
82.73292	6937.593	12.45584
82.7869	6897.191	13.5405
82.84089	6932.811	15.99342
82.89487	6902.076	10.7762
82.94887	6939.832	8.661455
83.00285	6896.23	12.41146
83.05684	6940.648	13.16155
83.11082	6903.314	14.81968
83.16481	6940.211	12.8718
83.2188	6903.404	10.5226
83.27279	6945.682	13.03954
83.32677	6902.023	22.24471
83.38076	6948.326	20.38253
83.43475	6906.864	16.32639
83.48874	6949.17	8.345264
83.54272	6899.276	6.121892
83.59671	6931.483	10.92898
83.6507	6894.106	7.857332
83.70468	6935.681	8.650612
83.75867	6897.437	6.714855
83.81266	6942.685	6.47957
83.86665	6899.859	8.39772
83.92063	6949.535	13.22696
83.97462	6912.571	9.784389
84.02861	6944.582	13.62134
84.0826	6898.895	8.460361
84.13658	6936.065	16.98689
84.19057	6903.311	10.70205
84.24455	6906.836	9.113934
84.29855	6898.353	10.06333
84.35253	6905.988	14.13715
84.40652	6897.989	17.56917
84.4605	6894.362	15.74375
84.51449	6899.526	6.206249
84.56848	6881.452	4.580377
84.62247	6898.789	9.048229
84.67645	6865.157	11.29954
84.73044	6885.228	8.63101
84.78442	6847.092	5.152163
84.83842	6893.382	16.91363
84.8924	6838.857	19.62047
84.94639	6876.92	9.359477
85.00037	6834.648	15.34999
85.05436	6880.296	10.50817
85.10835	6837.852	10.62818
85.16234	6874.895	11.28126
85.21632	6833.805	9.843966
85.27031	6873.137	10.44871
85.3243	6825.441	19.89716
85.37829	6861.15	19.96008
85.43227	6820.309	25.551
85.48626	6861.724	17.7083
85.54025	6812.933	16.55879
85.59423	6859.597	20.2875
85.64822	6803.771	12.40663
85.70221	6835.651	9.961436
85.7562	6793.17	14.067
85.81018	6836.548	10.69336
85.86417	6781.576	7.283657
85.91816	6825.898	10.49684
85.97215	6779.281	10.83382
86.02613	6818.625	4.760848
86.08012	6770.531	6.349658
86.1341	6796.414	7.588958
86.1881	6745.707	11.92313
86.24208	6781.167	11.68228
86.29607	6736.383	8.115556
86.35005	6783.149	9.595865
86.40404	6727.214	14.62727
86.45803	6782.582	16.75876
86.51202	6732.116	14.71873
86.566	6772.581	4.701486
86.61999	6715.643	9.491052
86.67397	6762.507	13.36379
86.72797	6706.203	11.65047
86.78195	6734.502	19.26525
86.83594	6690.299	9.633911
86.88992	6723.436	15.26357
86.94391	6679.525	9.470651
86.9979	6690.557	23.83902
87.05189	6661.298	18.01223
87.10587	6683.77	28.91969
87.15986	6650.722	24.61091
87.21384	6658.398	21.21702
87.26784	6639.404	16.3705
87.32182	6648.069	18.57483
87.37581	6626.831	14.99014
87.42979	6625.331	12.49634
87.48378	6610.622	13.87189
87.53777	6610.011	22.11377
87.59176	6610.099	19.28521
87.64574	6596.476	16.05223
87.69973	6591.293	19.71436
87.75372	6573.552	14.88568
87.80771	6575.194	15.4224
87.86169	6551.516	19.38826
87.91568	6559.226	22.56631
87.96967	6531.627	14.47484
88.02365	6542.824	14.79414
88.07764	6513.813	11.70383
88.13163	6530.526	17.97156
88.18562	6502.149	13.43073
88.2396	6522.968	29.62571
88.29359	6479.194	22.0082
88.34758	6510.465	22.08765
88.40157	6456.544	21.73252
88.45555	6487.646	21.81441
88.50954	6438.991	18.11735
88.56352	6476.868	12.75352
88.61752	6421.662	12.56985
88.6715	6470.288	19.55959
88.72549	6417.768	22.63963
88.77947	6450.121	15.563
88.83346	6396.379	9.149411
88.88745	6435.549	13.65805
88.94144	6379.513	13.61723
88.99542	6417.684	21.69217
89.04941	6374.743	17.79513
89.10339	6407.468	13.11517
89.15739	6350.815	10.38913
89.21137	6392.095	21.70307
89.26536	6340.14	20.71056
89.31934	6379.149	21.59381
89.37333	6327.993	15.39805
89.42732	6371.858	15.75678
89.48131	6322.352	18.78004
89.53529	6356.247	17.86665
89.58928	6300.576	20.76254
89.64326	6334.353	13.12924
89.69726	6285.33	14.82252
89.75124	6320.161	16.95293
89.80523	6272.038	16.9912
89.85921	6308.449	14.86863
89.9132	6259.528	10.01698
89.96719	6291.522	20.13071
90.02118	6238.921	18.75673
90.07516	6287.312	15.31645
90.12915	6237.583	13.01224
90.18314	6273.095	13.97034
90.23713	6215.663	16.01519
90.29111	6255.526	15.23859
90.3451	6204.648	10.15198
90.39909	6236.474	8.114147
90.45308	6188	12.72126
90.50706	6215.533	16.20729
90.56105	6169.768	17.11895
90.61504	6196.95	21.90636
90.66902	6161.6	11.56441
90.72301	6182.292	16.1022
90.777	6148.57	19.08065
90.83099	6168.735	23.15302
90.88497	6132.953	17.61689
90.93896	6150.206	22.08447
90.99295	6127.466	16.7548
91.04694	6115.834	13.86368
91.10092	6103.35	12.7599
91.15491	6097.647	13.4516
91.20889	6085.983	7.764481
91.26289	6083.37	10.06149
91.31687	6072.082	6.8154
91.37086	6067.524	7.513052
91.42484	6064.046	13.20958
91.47883	6044.958	11.8898
91.53282	6051.217	14.82457
91.58681	6028.263	13.03749
91.64079	6033.671	14.86382
91.69478	6007.319	10.01605
91.74876	6014.654	10.8372
91.80276	5974.665	13.4374
91.85674	5999.127	7.785887
91.91073	5956.45	11.58023
91.96471	5988.272	5.30909
92.0187	5942.586	9.546435
92.07269	5979.429	7.789152
92.12668	5931.505	2.20681
92.18066	5970.682	8.004972
92.23465	5915.436	6.597842
92.28864	5956.037	8.590234
92.34263	5897.857	10.46655
92.39661	5935.568	10.7809
92.4506	5895.436	12.93369
92.50459	5926.785	8.80084
92.55857	5877.452	8.894787
92.61256	5901.782	9.618703
92.66655	5853.595	4.359263
92.72054	5890.262	8.672977
92.77452	5845.21	16.99083
92.82851	5875.15	7.325826
92.8825	5830.194	16.28461
92.93649	5858.531	19.40533
92.99047	5812.407	20.89838
93.04446	5845.793	21.16853
93.09844	5803.575	16.0119
93.15244	5840.194	16.76865
93.20642	5784.402	15.14702
93.26041	5822.71	15.40461
93.31439	5774.624	12.58435
93.36838	5806.9	19.70635
93.42237	5767.001	9.343099
93.47636	5788.786	19.69767
93.53034	5746.435	11.22664
93.58433	5778.044	15.8702
93.63831	5735.287	15.91895
93.69231	5772.741	10.00523
93.74629	5715.552	15.80047
93.80028	5752.982	11.74258
93.85426	5699.436	16.66469
93.90825	5734.921	23.81313
93.96224	5693.939	24.27028
94.01623	5727.537	7.7411
94.07021	5667.692	9.842001
94.1242	5709.45	16.85696
94.17818	5648.133	20.48534
94.23218	5692.557	14.57563
94.28616	5628.581	15.88595
94.34015	5651.489	20.32823
94.39413	5608.974	13.78255
94.44812	5623.812	16.04293
94.50211	5654.462	16.2876
94.5561	5601.211	16.37025
94.61008	5606.43	17.42849
94.66407	5633.542	16.81986
94.71806	5570.221	11.30814
94.77205	5564.95	16.12766
94.82603	5557.839	19.83889
94.88002	5549.88	17.80828
94.93401	5583.272	24.0399
94.98799	5585.458	22.68279
