T[Â°C]	330nm [counts / mm]	S.D.
19.99899	7825.337	
19.99925	7854.181	
19.99961	7833.448	
20.00878	7838.051	
20.01102	7847.142	
20.03153	7842.971	
20.03522	7836.988	
20.06198	7834.079	
20.06689	7830.089	
20.10082	7815.477	
20.1067	7808.61	
20.14884	7805.527	
20.15585	7796.887	
20.20217	7817.5	
20.2104	7804.988	
20.26554	7807.265	
20.27474	7823.111	
20.33619	7802.619	
20.34611	7791.388	
20.41344	7782.964	
20.42466	7773.398	
20.49792	7782.221	
20.50898	7765.848	
20.58289	7770.289	
20.59572	7761.393	
20.67973	7757.32	
20.69269	7762.697	
20.77784	7747.554	
20.79135	7746.864	
20.87719	7749.886	
20.89145	7729.216	
20.98483	7737.628	
20.99936	7723.9	
21.09115	7715.393	
21.10575	7727.999	
21.19955	7711.941	
21.21515	7705.1	
21.30807	7682.56	
21.32279	7701.954	
21.41912	7664.342	
21.43493	7672.144	
21.53062	7653.783	
21.5456	7649.665	
21.63811	7637.001	
21.65263	7648.364	
21.74838	7637.082	
21.76281	7633.866	
21.8568	7636.538	
21.87237	7624.209	
21.96616	7599.474	
21.98104	7612.343	
22.07754	7590.583	
22.09288	7594.49	
22.18467	7588.795	
22.19887	7590.993	
22.29486	7583.13	
22.31011	7587.244	
22.40435	7575.5	
22.41917	7569.833	
22.51488	7563.469	
22.53029	7534.746	
22.62237	7529.963	
22.63676	7538.767	
22.73151	7527.965	
22.74666	7539.878	
22.84277	7528.29	
22.85718	7512.372	
22.95095	7504.073	
22.96602	7500.061	
23.0612	7489.088	
23.076	7512.957	
23.17034	7494.496	
23.1848	7474.067	
23.27856	7461.405	
23.29485	7463.314	
23.3891	7455.73	
23.40413	7444.485	
23.49989	7435.672	
23.51486	7429.529	
23.60846	7441.863	
23.62282	7423.595	
23.71756	7431.044	
23.73281	7433.469	
23.82711	7432.258	
23.84137	7434.811	
23.93507	7396.907	
23.94951	7407.905	
24.04672	7404.13	
24.06214	7396.143	
24.1561	7392.158	
24.17083	7392.241	
24.26492	7356.783	
24.27986	7380.754	
24.37442	7360.091	
24.38934	7356.078	
24.48492	7338.517	
24.50004	7342.541	
24.59222	7350.563	
24.60723	7338.603	
24.70343	7329.126	
24.71781	7326.028	
24.81377	7315.161	
24.82874	7315.403	
24.92179	7298.017	
24.93634	7309.508	
25.03099	7298.33	
25.04561	7287.583	
25.14207	7295.248	
25.15731	7289.117	
25.25137	7260.386	
25.26571	7263.04	
25.36015	7255.265	
25.37496	7261.466	
25.47034	7239.075	
25.48557	7247.441	
25.58032	7227.884	
25.59478	7226.848	
25.68724	7229.818	
25.70223	7222.25	
25.79776	7204.396	
25.81344	7211.321	
25.90934	7203.452	
25.92387	7201.187	
26.01703	7192.648	
26.03187	7181.017	
26.12702	7190.249	
26.14177	7172.371	
26.23679	7182.689	
26.25183	7159.426	
26.34824	7159.982	
26.36319	7148.94	
26.45438	7155.484	
26.47227	7136.618	
26.56561	7117.52	
26.58052	7135.925	
26.67496	7131.46	
26.68946	7120.336	
26.78226	7117.604	
26.79663	7108.613	
26.89351	7104.104	
26.90855	7083.876	
27.00182	7092.909	
27.01626	7079.509	
27.11239	7089.757	
27.12677	7063.634	
27.22129	7055.649	
27.23649	7064.442	
27.33176	7051.776	
27.34597	7055.615	
27.43961	7041.077	
27.45417	7042.939	
27.54992	7032.951	
27.56443	7033.505	
27.66036	7024.853	
27.67488	7012.764	
27.77071	7003.131	
27.78522	7012.489	
27.88044	6998.749	
27.89584	7002.125	
27.98965	6990.282	
28.004	6990.507	
28.09772	6990.085	
28.11424	6977.589	
28.21093	6978.895	
28.2256	6961.039	
28.31676	6964.867	
28.33128	6969.941	
28.42664	6944.047	
28.44159	6964.539	
28.53709	6914.212	
28.55169	6936.246	
28.64507	6909.348	
28.66006	6918.107	
28.75477	6914.864	
28.7696	6901.682	
28.86382	6902.812	
28.87842	6908.335	
28.97418	6884.539	
28.98872	6874.349	
29.0846	6880.116	
29.09953	6876.816	
29.19159	6875.603	
29.20616	6871.258	
29.30199	6855.428	
29.31686	6867.227	
29.41205	6852.254	
29.42668	6857.794	
29.52016	6851.441	
29.53494	6829.871	
29.63081	6833.562	
29.64596	6830.668	
29.73984	6823.004	
29.75411	6810.565	
29.8496	6799.227	
29.86438	6794.666	
29.95882	6801.763	
29.97392	6805.034	
30.06762	6789.43	
30.0827	6777.132	
30.17598	6776.411	
30.1909	6776.183	
30.28613	6773.914	
30.30119	6767.294	
30.39525	6760.729	
30.41018	6753.339	
30.50621	6753.887	
30.52099	6738.194	
30.61531	6727.855	
30.63012	6714.941	
30.72546	6725.061	
30.7404	6716.298	
30.8353	6689.088	
30.85046	6685.649	
30.94502	6676.951	
30.96042	6678.472	
31.05197	6692.559	
31.0671	6692.365	
31.16328	6675.42	
31.17826	6675.152	
31.2724	6681.671	
31.28712	6662.694	
31.38134	6666.115	
31.39609	6648.415	
31.49036	6652.192	
31.50547	6645.002	
31.59864	6645.456	
31.61386	6625.853	
31.71022	6622.855	
31.72491	6618.324	
31.82003	6609.563	
31.83479	6611.554	
31.9278	6626.817	
31.94421	6591.604	
32.03763	6592.964	
32.05349	6607.026	
32.14741	6593.646	
32.16254	6593.587	
32.25578	6569.06	
32.27228	6592.843	
32.36597	6562.971	
32.38073	6566.174	
32.47646	6550.395	
32.49122	6559.784	
32.58646	6542.321	
32.60105	6543.193	
32.69444	6534.694	
32.70936	6530.836	
32.8041	6518	
32.81942	6512.669	
32.91364	6513.721	
32.92835	6502.363	
33.02348	6500.955	
33.03793	6493.471	
33.1314	6482.099	
33.14623	6482.213	
33.24399	6480.243	
33.25864	6482.466	
33.35289	6458.929	
33.36737	6465.128	
33.4617	6466.901	
33.47763	6453.51	
33.57037	6450.89	
33.58524	6436.534	
33.6804	6440.111	
33.69765	6429.924	
33.78811	6443.025	
33.80257	6420.649	
33.89902	6423.528	
33.91407	6422.682	
34.00954	6406.636	
34.02417	6401.262	
34.11708	6394.143	
34.13172	6398.134	
34.22674	6393.271	
34.24159	6393.99	
34.33784	6380.766	
34.35307	6380.111	
34.44615	6360.342	
34.46173	6361.825	
34.55638	6362.551	
34.571	6344.272	
34.66648	6352.456	
34.68115	6346.322	
34.77478	6336.332	
34.78958	6334.554	
34.88295	6323.23	
34.89749	6328.08	
34.99313	6326.555	
35.00788	6320.338	
35.10072	6314.28	
35.11552	6289.15	
35.21242	6303.69	
35.22789	6293.14	
35.32075	6298.95	
35.33565	6290.66	
35.4319	6278.444	
35.44685	6277.881	
35.54149	6282.769	
35.55596	6256.922	
35.64962	6263.37	
35.6643	6264.476	
35.75947	6242.449	
35.77455	6262.515	
35.86846	6233.182	
35.88351	6248.476	
35.97972	6227.065	
35.99407	6227.444	
36.08724	6223.062	
36.10195	6216.668	
36.19696	6189.188	
36.2122	6202.395	
36.30781	6188.205	
36.32256	6193.857	
36.41581	6192.427	
36.4308	6179.626	
36.52516	6178.484	
36.5407	6169.803	
36.63587	6165.767	
36.6508	6162.934	
36.74427	6148.245	
36.75922	6157.866	
36.85405	6147.702	
36.86882	6149.11	
36.96344	6143.012	
36.97959	6142.302	
37.07182	6129.022	
37.08682	6126.735	
37.18443	6114.215	
37.19985	6106.404	
37.29391	6101.11	
37.30849	6090.686	
37.40181	6100.782	
37.41653	6078.898	
37.51093	6092.757	
37.5261	6074.136	
37.62053	6082.455	
37.63549	6077.519	
37.73023	6083.535	
37.74463	6059.612	
37.84034	6056.142	
37.85558	6054.816	
37.94761	6044.847	
37.96241	6044.327	
38.05769	6031.58	
38.07238	6049.171	
38.16702	6035.766	
38.1824	6030.428	
38.27819	6017.684	
38.29292	6022.482	
38.3868	6023.56	
38.40144	6010.609	
38.49611	6004.421	
38.51111	5981.94	
38.60598	5990.261	
38.62088	5987.876	
38.71575	5978.451	
38.73023	5980.981	
38.82209	5983.729	
38.83825	5970.541	
38.93325	5973.612	
38.9483	5961.786	
39.04217	5967.162	
39.0568	5954.049	
39.15345	5950.558	
39.16825	5946.266	
39.2612	5935.107	
39.27599	5951	
39.37152	5903.944	
39.38809	5923.572	
39.48076	5915.993	
39.49546	5913.152	
39.59272	5906.325	
39.60705	5902.063	
39.69944	5892.352	
39.71521	5887.815	
39.80963	5884.513	
39.82409	5874.934	
39.91962	5881.979	
39.93413	5878.702	
40.0289	5868.387	
40.04647	5856.824	
40.14248	5868.799	
40.15656	5865.47	
40.25054	5846.013	
40.26628	5837.239	
40.36049	5840.598	
40.37704	5829.754	
40.47169	5824.227	
40.48652	5827.437	
40.57984	5818.279	
40.59474	5800.373	
40.68915	5818.332	
40.70404	5799.741	
40.79822	5806.77	
40.81322	5800.695	
40.90926	5782.896	
40.92383	5786.069	
41.01717	5785.771	
41.03233	5774.963	
41.12776	5771.458	
41.14258	5766.58	
41.23457	5765.592	
41.24917	5765.237	
41.3469	5766.068	
41.36163	5749.324	
41.45544	5753.493	
41.46978	5729.778	
41.56345	5747.51	
41.57868	5718.601	
41.67392	5731.323	
41.68847	5710.495	
41.78492	5716.301	
41.79966	5711.181	
41.89391	5704.684	
41.90836	5700.332	
42.00219	5689.164	
42.01674	5686.519	
42.11207	5678.673	
42.12671	5685.462	
42.22352	5687.039	
42.23828	5672.055	
42.33101	5669.931	
42.347	5668.711	
42.44004	5651.631	
42.45519	5646.882	
42.55151	5635.554	
42.56657	5647.948	
42.66065	5642.882	
42.67511	5641.976	
42.76865	5634.552	
42.78339	5621.395	
42.87975	5637.787	
42.8942	5617.567	
42.9903	5634.22	
43.00496	5617.622	
43.09778	5608.074	
43.11281	5604.163	
43.20728	5591.409	
43.22238	5606.587	
43.31671	5571.516	
43.33193	5601.201	
43.42602	5579.127	
43.4407	5571.763	
43.5346	5561.604	
43.54972	5568.59	
43.64564	5564.037	
43.66115	5548.388	
43.75467	5538.252	
43.76928	5535.749	
43.86304	5537.239	
43.87792	5522.225	
43.97263	5541.852	
43.98739	5526.305	
44.08352	5532.341	
44.09787	5514.192	
44.19235	5509.091	
44.20754	5506.916	
44.30047	5506.687	
44.31541	5496.07	
44.40969	5494.439	
44.42449	5490.618	
44.51966	5497.652	
44.53513	5478.865	
44.62819	5480.127	
44.64226	5462.577	
44.73845	5462.521	
44.75351	5475.294	
44.84856	5455.358	
44.86338	5445.912	
44.95996	5449.497	
44.97403	5431.702	
45.06731	5441.296	
45.08191	5419.342	
45.17601	5447.684	
45.19081	5414.899	
45.28479	5414.419	
45.29967	5415.908	
45.39542	5420.454	
45.41015	5418.489	
45.50488	5399.147	
45.51957	5378.072	
45.61375	5391.27	
45.62861	5391.355	
45.72331	5387.216	
45.73812	5376.139	
45.83415	5368.765	
45.84903	5372.806	
45.9432	5358.958	
45.958	5358.706	
46.0528	5367.974	
46.06775	5357.631	
46.16322	5346.806	
46.17765	5331.25	
46.27227	5337.219	
46.28698	5333.4	
46.38076	5330.187	
46.3956	5315.27	
46.49166	5329.773	
46.507	5316.254	
46.59999	5323.15	
46.61473	5305.292	
46.70998	5314.872	
46.72488	5298.646	
46.8191	5309.014	
46.83321	5303.264	
46.92684	5266.778	
46.94175	5291.147	
47.03823	5273.581	
47.05353	5279.019	
47.14886	5265.515	
47.16344	5258.923	
47.2566	5265.561	
47.27116	5247.69	
47.36699	5256.522	
47.38195	5239.714	
47.47623	5239.758	
47.49094	5245.372	
47.58641	5238.647	
47.6012	5231.903	
47.69501	5237.56	
47.70956	5217.618	
47.80299	5218.521	
47.81785	5207.761	
47.91338	5205.037	
47.92832	5207.219	
48.02538	5192.696	
48.04237	5181.869	
48.13268	5183.544	
48.14746	5181.287	
48.24358	5172.613	
48.25809	5164.84	
48.35126	5181.75	
48.36628	5162.53	
48.46177	5150.235	
48.4766	5157.664	
48.57144	5153.491	
48.58881	5142.438	
48.6851	5148.197	
48.70003	5139.117	
48.7949	5149.356	
48.809	5135.512	
48.90334	5120.689	
48.91816	5121.731	
49.01279	5120.832	
49.02939	5103.48	
49.1211	5111.356	
49.13586	5105.715	
49.2323	5107.726	
49.24701	5086.809	
49.34	5095.945	
49.35471	5073.238	
49.45074	5080.36	
49.46514	5087.796	
49.56032	5061.607	
49.57721	5074.143	
49.66822	5068.518	
49.68306	5060.118	
49.7796	5063.708	
49.79441	5064.129	
49.89027	5048.951	
49.90458	5056.733	
49.9962	5046.111	
50.01347	5029.649	
50.10766	5041.874	
50.12397	5019.118	
50.21632	5023.112	
50.23088	5023.299	
50.32507	5016.258	
50.34051	5009.951	
50.43413	5022.042	
50.44857	5003.051	
50.54313	5015.003	
50.55819	4999.879	
50.65548	5004.751	
50.67225	4984.077	
50.76639	4987.744	
50.78133	4990.419	
50.8765	4965.818	
50.89127	4987.094	
50.98669	4958.611	
51.00146	4963.797	
51.09471	4960.667	
51.11089	4953.713	
51.20654	4951.239	
51.22146	4941.229	
51.31472	4939.496	
51.3294	4926.466	
51.42375	4933.372	
51.43856	4926.079	
51.53351	4923.582	
51.55004	4917.1	
51.6435	4926.687	
51.65853	4910.292	
51.75003	4909.28	
51.76465	4904.274	
51.86265	4907.292	
51.87776	4893.774	
51.9714	4893.905	
51.98603	4877.313	
52.08137	4885.161	
52.09803	4874.222	
52.19073	4867.054	
52.2057	4855.786	
52.29951	4872.144	
52.3165	4846.498	
52.40742	4853.79	
52.42187	4850.125	
52.51567	4851.956	
52.53066	4843.003	
52.62887	4859.786	
52.64323	4840.133	
52.73529	4837.383	
52.74989	4833.831	
52.84546	4831.544	
52.86056	4811.573	
52.95673	4803.098	
52.97131	4811	
53.06425	4811.254	
53.07889	4802.201	
53.17599	4807.443	
53.19044	4791.681	
53.28568	4776.347	
53.30046	4769.539	
53.39327	4777.354	
53.40822	4779.34	
53.50307	4766.805	
53.51801	4772.385	
53.61271	4770.676	
53.6273	4771.335	
53.72011	4758.115	
53.73885	4771.303	
53.83142	4763.312	
53.84665	4752.532	
53.94184	4746.899	
53.95639	4735.508	
54.05264	4730.764	
54.06736	4731.38	
54.16008	4730.4	
54.17515	4720.681	
54.26963	4730.273	
54.28472	4723.543	
54.37952	4732.416	
54.39394	4706.347	
54.4895	4713.548	
54.50424	4708.697	
54.59907	4715.703	
54.61385	4693.276	
54.7089	4705.404	
54.72372	4681.061	
54.81816	4675.032	
54.83298	4687.396	
54.92645	4662.915	
54.9415	4662.215	
55.0369	4671.09	
55.05156	4664.748	
55.14517	4661.505	
55.15971	4649.662	
55.25762	4645.202	
55.27246	4645.293	
55.36684	4637.231	
55.38092	4635.469	
55.47553	4638.025	
55.49052	4625.839	
55.58424	4637.537	
55.59925	4617.01	
55.69407	4613.857	
55.70884	4620.057	
55.80575	4608.584	
55.82026	4598.975	
55.91312	4603.628	
55.92805	4590.326	
56.02373	4605.958	
56.03846	4577.206	
56.13293	4583.424	
56.14761	4574.412	
56.24239	4585.785	
56.25732	4569.522	
56.35251	4569.771	
56.36674	4563.042	
56.46102	4571.612	
56.47601	4558.668	
56.57327	4559.349	
56.58773	4554.203	
56.68016	4538.076	
56.6951	4532.914	
56.78958	4533.448	
56.80638	4527.132	
56.90243	4524.386	
56.91728	4528.261	
57.01114	4521.98	
57.0257	4521.804	
57.11993	4521.996	
57.13462	4506.239	
57.23124	4506.799	
57.24739	4487.017	
57.3379	4502.514	
57.35278	4488.719	
57.44884	4489.344	
57.46338	4487.285	
57.55603	4485.553	
57.57123	4479.405	
57.66625	4471.06	
57.68161	4472.685	
57.77723	4464.822	
57.793	4467.433	
57.88674	4475.226	
57.90371	4455.936	
57.99862	4460.107	
58.0162	4444.051	
58.11295	4448.031	
58.1287	4444.721	
58.22161	4442.074	
58.23949	4437.536	
58.33588	4439.443	
58.3516	4435.949	
58.44536	4431.025	
58.46357	4410.257	
58.55739	4430.638	
58.57401	4423.768	
58.66796	4411.195	
58.68449	4394.499	
58.77783	4410.401	
58.7944	4400.411	
58.88707	4400.885	
58.90186	4391.747	
58.99566	4393.146	
59.0106	4376.517	
59.10593	4373.739	
59.12035	4375.159	
59.21659	4370.719	
59.23173	4372.604	
59.32685	4369.638	
59.34099	4360.449	
59.43734	4358.929	
59.45178	4352.331	
59.54609	4349.222	
59.56147	4349.178	
59.6589	4339.324	
59.67312	4339	
59.7712	4332.042	
59.78632	4327.981	
59.88292	4324.488	
59.89745	4315.023	
59.99364	4326.481	
60.009	4300.274	
60.10616	4311.848	
60.12089	4292.341	
60.21729	4320.148	
60.23201	4302.684	
60.32698	4299.143	
60.34177	4294.497	
60.43967	4307.635	
60.45446	4285.931	
60.55393	4284.415	
60.56893	4279.859	
60.66236	4274.994	
60.67673	4265.235	
60.77401	4278.341	
60.78889	4265.886	
60.88756	4270.871	
60.9027	4245.333	
60.99757	4261.906	
61.01266	4249.874	
61.11353	4262.956	
61.12818	4240.465	
61.22486	4242.602	
61.23996	4234.312	
61.33539	4244.503	
61.34994	4233.081	
61.44761	4224.24	
61.46253	4218.026	
61.55826	4210.222	
61.57288	4218.676	
61.66837	4208.488	
61.6834	4203.196	
61.77673	4208.36	
61.7915	4204.765	
61.88782	4195.4	
61.90359	4195.26	
61.99678	4201.669	
62.01394	4183.702	
62.10677	4196.963	
62.12152	4176.956	
62.21494	4186.954	
62.23108	4179.74	
62.3257	4184.314	
62.34071	4174.488	
62.4346	4179.196	
62.44897	4168.478	
62.5442	4167.088	
62.55847	4155.305	
62.65433	4166.527	
62.66946	4150.997	
62.76236	4156.088	
62.77707	4152.615	
62.87286	4163.927	
62.88783	4145.443	
62.98192	4136.809	
62.9992	4146.029	
63.09119	4134.181	
63.10567	4142.063	
63.20131	4138.374	
63.21623	4131.883	
63.31379	4128.883	
63.33148	4127.398	
63.4236	4125.053	
63.43879	4116.43	
63.53373	4111.561	
63.55136	4094.574	
63.64679	4126.299	
63.66143	4101.04	
63.75716	4112.333	
63.77184	4103.718	
63.86714	4108.063	
63.88229	4091.52	
63.97504	4103.932	
63.99001	4102.059	
64.08448	4111.631	
64.09941	4102.09	
64.19604	4099.551	
64.21053	4081.216	
64.30489	4096.25	
64.3194	4093.409	
64.41375	4092.923	
64.4287	4084.612	
64.52306	4083.1	
64.53786	4084.397	
64.63156	4088.796	
64.64858	4087.948	
64.74352	4093.51	
64.75769	4069.996	
64.85242	4084.255	
64.86764	4064.878	
64.96653	4084.717	
64.98128	4062.76	
65.07485	4088.685	
65.08976	4081.122	
65.18507	4083.362	
65.20005	4067.829	
65.29497	4081.396	
65.30946	4065.235	
65.40348	4089.488	
65.41827	4061.062	
65.51258	4082.001	
65.52737	4061.459	
65.62374	4082.065	
65.63853	4065.945	
65.73199	4083.004	
65.74997	4061.097	
65.84654	4092.462	
65.86117	4075.483	
65.95635	4082.635	
65.97101	4088.878	
66.06709	4088.49	
66.08193	4084.793	
66.17428	4099	
66.18891	4091.537	
66.28263	4097.139	
66.29778	4095.218	
66.39597	4111.457	
66.41038	4107.548	
66.50333	4120.928	
66.518	4101.95	
66.61186	4115.251	
66.62708	4122.797	
66.7239	4135.274	
66.73844	4135.11	
66.83282	4136.942	
66.84769	4141.751	
66.9408	4172.341	
66.95598	4144.27	
67.05392	4169.144	
67.06822	4163.396	
67.16111	4187.549	
67.17596	4167.465	
67.27087	4197.354	
67.28581	4188.372	
67.38075	4215.861	
67.39566	4215.682	
67.49078	4222.245	
67.50556	4236.507	
67.60098	4240.804	
67.61533	4245.611	
67.71009	4255.227	
67.72523	4276.72	
67.81966	4290.715	
67.83474	4280.131	
67.92787	4315.633	
67.94238	4306.609	
68.03893	4346.095	
68.0539	4342.083	
68.14803	4366.393	
68.16238	4356.626	
68.25784	4400.479	
68.27277	4392.604	
68.36618	4440.13	
68.38124	4419.77	
68.47545	4473.514	
68.49036	4452.351	
68.58554	4506.991	
68.60042	4500.915	
68.69798	4542.193	
68.71313	4555.422	
68.80901	4601.747	
68.8235	4584.37	
68.91875	4617.551	
68.93429	4627.551	
69.02993	4664.601	
69.04522	4670.805	
69.13615	4732.243	
69.15385	4724.504	
69.24524	4780.361	
69.26106	4788.901	
69.35442	4831.889	
69.36938	4832.187	
69.46634	4907.057	
69.48071	4897.353	
69.57501	4971.164	
69.59259	4969.281	
69.68294	5027.416	
69.69772	5032.588	
69.79558	5114.227	
69.81042	5112.272	
69.90483	5189.459	
69.91981	5193.629	
70.01287	5269.014	
70.02784	5260.364	
70.12162	5357.697	
70.13609	5345.071	
70.23158	5436.627	
70.24785	5449.934	
70.34232	5543.206	
70.35721	5550.202	
70.45399	5645.716	
70.46896	5658.41	
70.5649	5778.925	
70.5798	5782.817	
70.67554	5895.59	
70.69028	5896.361	
70.78334	6000.437	
70.79797	6037.565	
70.89243	6139.343	
70.90774	6141.092	
71.00368	6254.67	
71.0183	6265.389	
71.11401	6368.828	
71.12951	6378.349	
71.22218	6476.187	
71.23917	6484.892	
71.33412	6589.645	
71.34906	6603.477	
71.44511	6712.388	
71.45971	6712.423	
71.55482	6816.674	
71.57288	6816.494	
71.66921	6946.681	
71.68398	6942.917	
71.77816	7102.154	
71.79301	7089.551	
71.88825	7219.983	
71.90555	7239.573	
71.99887	7340.182	
72.01417	7364.538	
72.11031	7453.485	
72.12477	7470.059	
72.21916	7563.865	
72.23798	7584.989	
72.32875	7675.27	
72.34329	7684.973	
72.43965	7786.672	
72.45425	7786.069	
72.54804	7880.022	
72.56573	7877.939	
72.66542	7985.835	
72.67986	7951.245	
72.77094	8054.306	
72.78523	8041.024	
72.88187	8148.352	
72.89809	8125.598	
72.99064	8221.41	
73.0057	8191.606	
73.09733	8271.014	
73.11217	8258.188	
73.21183	8320.162	
73.22714	8308.564	
73.31789	8367.473	
73.33307	8372.113	
73.42804	8409.804	
73.44269	8397.201	
73.53775	8461.67	
73.55782	8438.075	
73.65145	8507.899	
73.66648	8464.686	
73.76256	8521.512	
73.77908	8513.234	
73.87075	8558.612	
73.88622	8524.817	
73.98058	8581.06	
73.9956	8574.662	
74.09067	8613.92	
74.10532	8587.523	
74.20109	8629.574	
74.21545	8600.532	
74.30827	8650.935	
74.32292	8648.353	
74.42146	8656.093	
74.44016	8642.985	
74.53272	8684.369	
74.54742	8660.924	
74.64115	8707.947	
74.65749	8673.308	
74.75195	8727.286	
74.76662	8683.561	
74.86298	8731.898	
74.87752	8718.538	
74.97105	8736.331	
74.98547	8716.553	
75.08164	8742.654	
75.09718	8711.09	
75.19185	8774.789	
75.20633	8719.292	
75.30188	8779.668	
75.31724	8746.409	
75.41476	8786.734	
75.42973	8764.938	
75.52455	8795.148	
75.53944	8767.586	
75.63428	8803.029	
75.64876	8785.505	
75.74337	8809.565	
75.75801	8785.639	
75.85667	8825.094	
75.87162	8788.798	
75.96436	8823.354	
75.97903	8803.396	
76.07769	8835.786	
76.0928	8794.178	
76.18767	8846.02	
76.20274	8800.18	
76.30209	8816.956	
76.31703	8804.765	
76.41147	8842.544	
76.42645	8807.998	
76.52509	8826.316	
76.54012	8821.279	
76.63251	8868.85	
76.64725	8807.077	
76.74377	8855.522	
76.75818	8816.338	
76.8519	8850.566	
76.87007	8811.505	
76.96564	8847.923	
76.98061	8814.604	
77.07574	8841.491	
77.0927	8810.702	
77.18426	8841.116	
77.19868	8829.875	
77.29684	8838.857	
77.31524	8834.229	
77.40826	8833.402	
77.42446	8841.896	
77.51796	8824.384	
77.53469	8810.105	
77.62676	8848.599	
77.64163	8804.279	
77.73666	8822.901	
77.75403	8775.082	
77.85239	8815.369	
77.86673	8780.281	
77.96024	8806.479	
77.97826	8779.745	
78.07308	8816.014	
78.08831	8779.516	
78.18375	8809.86	
78.20139	8766.581	
78.29496	8797.539	
78.3099	8780.128	
78.40681	8795.722	
78.42183	8775.986	
78.51797	8778.469	
78.53195	8750.143	
78.62499	8783.028	
78.63925	8756.269	
78.73669	8780.696	
78.75171	8737.479	
78.8485	8763.168	
78.8629	8744.905	
78.9622	8774.162	
78.97703	8722.066	
79.07026	8774.898	
79.08529	8743.618	
79.18285	8754.699	
79.19821	8720.51	
79.29404	8752.512	
79.3092	8708.308	
79.40648	8730.998	
79.42349	8695.337	
79.51749	8730.884	
79.53221	8703.908	
79.63162	8728.849	
79.64648	8680.378	
79.73913	8715.618	
79.75401	8692.028	
79.85361	8712.896	
79.8686	8683.184	
79.96236	8705.301	
79.97737	8649.392	
80.07272	8683.664	
80.09113	8648.872	
80.18604	8689.565	
80.20071	8642.573	
80.29835	8681.857	
80.31346	8632.492	
80.41097	8666.646	
80.42556	8635.928	
80.5181	8653.601	
80.53288	8613.734	
80.62967	8654.841	
80.64828	8599.983	
80.74252	8643.628	
80.75721	8610.072	
80.85152	8645.835	
80.86621	8599.125	
80.96355	8626.742	
80.9781	8593.115	
81.07538	8603.664	
81.09038	8586.981	
81.18388	8608.895	
81.20205	8581.267	
81.29619	8610.564	
81.31111	8572.961	
81.40462	8610.256	
81.41958	8577.41	
81.5219	8599.877	
81.53667	8560.555	
81.63042	8588.726	
81.64561	8554.117	
81.73992	8582.376	
81.75435	8557.578	
81.85219	8562.531	
81.86767	8545.968	
81.96059	8569.856	
81.97601	8521.392	
82.07195	8575.177	
82.08633	8529.417	
82.18475	8575.154	
82.19923	8525.797	
82.29471	8555.325	
82.3097	8512.057	
82.40402	8557.388	
82.42208	8516.431	
82.51608	8554.411	
82.53158	8501.214	
82.62775	8560.394	
82.64182	8496.958	
82.73746	8557.057	
82.7551	8489.993	
82.8505	8535.217	
82.8656	8485.733	
82.95827	8524.456	
82.97301	8500.26	
83.07085	8497.886	
83.08572	8489.089	
83.18083	8488.925	
83.19566	8482.072	
83.29308	8505.854	
83.3113	8466.347	
83.40436	8502.835	
83.41945	8455.876	
83.51437	8479.587	
83.53082	8440.542	
83.623	8491.361	
83.63712	8432.285	
83.73302	8466.012	
83.7482	8433.325	
83.84413	8475.939	
83.85895	8428.354	
83.95501	8444.483	
83.97013	8407.252	
84.06551	8473.135	
84.08015	8421.494	
84.17571	8456.938	
84.19429	8400.36	
84.2907	8429.979	
84.30486	8387.173	
84.3987	8409.287	
84.41389	8370.188	
84.5135	8402.76	
84.52863	8363.805	
84.62105	8395.462	
84.63596	8348.239	
84.7303	8382.275	
84.74831	8347.028	
84.84407	8396.461	
84.85893	8347.512	
84.95359	8360.655	
84.96818	8330.771	
85.06352	8333.514	
85.07838	8301.963	
85.173	8326.636	
85.18803	8303.819	
85.28256	8326.858	
85.29684	8292.039	
85.39182	8308.63	
85.40676	8283.208	
85.50225	8304.51	
85.51693	8254.244	
85.61125	8278.89	
85.62646	8241.307	
85.7196	8261.637	
85.73417	8237.229	
85.83041	8257.58	
85.845	8225.84	
85.94109	8244.022	
85.95597	8199.127	
86.0509	8224.704	
86.06627	8179.457	
86.16011	8216.364	
86.17451	8171.884	
86.26955	8203.418	
86.28412	8164.317	
86.37935	8184.671	
86.39386	8136.192	
86.48787	8173.297	
86.5031	8120.906	
86.59835	8127.214	
86.61296	8091.88	
86.70807	8114.067	
86.72277	8066.653	
86.81873	8112.203	
86.83378	8060.316	
86.92779	8088.923	
86.94251	8047.187	
87.03663	8068.88	
87.05099	8030.302	
87.14754	8045.259	
87.16249	8005.054	
87.25634	8032.663	
87.27069	7991.442	
87.36614	8017.239	
87.38103	7968.8	
87.47555	7988.386	
87.4906	7948.173	
87.58657	7976.174	
87.60162	7918.764	
87.69484	7957.029	
87.70924	7922.368	
87.80231	7946.839	
87.81694	7904.544	
87.91341	7913.403	
87.92869	7864.957	
88.02207	7905.916	
88.03671	7864.833	
88.1326	7878.153	
88.14724	7827.495	
88.24062	7870.727	
88.25531	7805.467	
88.35031	7861.47	
88.36839	7793.775	
88.46185	7851.1	
88.47881	7776.178	
88.57082	7812.624	
88.5853	7774.664	
88.68151	7786.244	
88.69624	7741.438	
88.78979	7767.163	
88.80448	7733.198	
88.89967	7735.525	
88.91695	7718.162	
89.01044	7695.13	
89.02579	7700.949	
89.11858	7683.601	
89.13238	7660.153	
89.22913	7689.264	
89.24409	7660.414	
89.33978	7674.202	
89.35472	7612.284	
89.44846	7655.816	
89.46298	7629.174	
89.55712	7618.225	
89.572	7565.72	
89.66747	7604.598	
89.68194	7547.604	
89.77621	7581.928	
89.79139	7547.815	
89.88714	7563.997	
89.9015	7522.03	
89.99529	7548.113	
90.00982	7510.472	
90.10483	7544.842	
90.11938	7494.292	
90.21281	7509.936	
90.22793	7474.225	
90.32784	7493.705	
90.34255	7441.487	
90.4311	7479.714	
90.44572	7443.146	
90.54432	7447.842	
90.55939	7419.261	
90.65431	7436.288	
90.66905	7378.496	
90.7614	7427.028	
90.77755	7376.06	
90.87242	7394.382	
90.88734	7365.488	
90.98347	7362.625	
90.99869	7325.105	
91.09086	7351.259	
91.10553	7304.139	
91.20058	7325.973	
91.21502	7277.79	
91.31034	7300.681	
91.32507	7261.053	
91.41864	7276.071	
91.43344	7256.507	
91.52896	7269.295	
91.54572	7241.307	
91.63873	7269.464	
91.65374	7216.476	
91.74918	7236.465	
91.76468	7190.127	
91.85987	7214.493	
91.87422	7177.313	
91.96712	7206.396	
91.98199	7147.233	
92.07644	7179.514	
92.09107	7129.169	
92.1886	7159.814	
92.2036	7121.901	
92.29553	7128.338	
92.31017	7085.217	
92.40739	7128.03	
92.4221	7082.039	
92.51748	7097.087	
92.53253	7062.258	
92.62463	7070.966	
92.63925	7033.145	
92.7366	7068	
92.7513	7001.223	
92.84391	7047.451	
92.85883	6995.665	
92.95354	7033.226	
92.96806	6979.188	
93.06528	6996.016	
93.08011	6963.521	
93.17399	6982.435	
93.18891	6941.931	
93.28329	6947.249	
93.29839	6914.805	
93.39323	6953.896	
93.40787	6890.57	
93.50132	6917.004	
93.516	6881.249	
93.61369	6912.819	
93.62843	6858.817	
93.72248	6883.809	
93.73781	6845.543	
93.83205	6864.392	
93.84686	6820.114	
93.93844	6838.869	
93.95306	6806.395	
94.04786	6829.706	
94.06232	6792.733	
94.15015	6806.758	
94.16376	6760.967	
94.25105	6792.945	
94.26458	6735.934	
94.34811	6756.49	
94.36066	6734.46	
94.44109	6752.383	
94.45303	6708.836	
94.52872	6745.753	
94.5399	6709.941	
94.60986	6734.98	
94.62009	6684.337	
94.68271	6704.564	
94.6923	6663.081	
94.75217	6708.021	
94.76087	6666.13	
94.81313	6694.146	
94.82074	6639.806	
94.8661	6699.224	
94.87258	6652.079	
94.91082	6684.946	
94.91637	6633.209	
94.94657	6674.046	
94.95047	6616.845	
94.97214	6654.647	
94.97686	6623.337	
94.99315	6657.76	
