T[Â°C]	330nm [counts / mm]	S.D.	First derivative	S.D. of first derivative
20.00003	8095.46		-113.705	
20.05401	8089.687		-113.6974	
20.108	8083.906		-113.6871	
20.16199	8078.118		-113.6742	
20.21597	8072.322		-113.6584	
20.26996	8066.519		-113.6399	
20.32394	8060.708		-113.6184	
20.37793	8054.89		-113.5939	
20.43192	8049.064		-113.5664	
20.4859	8043.231		-113.5359	
20.53989	8037.388		-113.5022	
20.59387	8031.535		-113.4654	
20.64786	8025.672		-113.4255	
20.70185	8019.798		-113.3824	
20.75583	8013.913		-113.3361	
20.80982	8008.016		-113.2867	
20.8638	8002.107		-113.2341	
20.91779	7996.181		-113.1784	
20.97178	7990.218		-113.1196	
21.02576	7984.134		-113.0578	
21.07975	7978.071		-112.9931	
21.13374	7972.027		-112.9255	
21.18772	7965.992		-112.855	
21.24171	7959.947		-112.7819	
21.29569	7953.871		-112.7062	
21.34968	7947.74		-112.628	
21.40367	7941.534		-112.5474	
21.45765	7935.25		-112.4646	
21.51164	7928.888		-112.3797	
21.56562	7922.455		-112.2929	
21.61961	7915.972		-112.2043	
21.6736	7909.465		-112.1142	
21.72758	7902.966		-112.0226	
21.78157	7896.499		-111.9299	
21.83555	7890.079		-111.8362	
21.88954	7883.706		-111.7418	
21.94353	7877.376		-111.647	
21.99751	7871.089		-111.5519	
22.0515	7864.836		-111.4569	
22.10548	7858.604		-111.3622	
22.15947	7852.376		-111.2681	
22.21346	7846.133		-111.1746	
22.26744	7839.854		-111.0818	
22.32143	7833.527		-110.9892	
22.37542	7827.163		-110.896	
22.4294	7820.777		-110.8003	
22.48339	7814.38		-110.6992	
22.53737	7807.981		-110.5883	
22.59136	7801.588		-110.4626	
22.64535	7795.21		-110.2571	
22.69933	7788.854		-110.0515	
22.75332	7782.522		-109.8461	
22.8073	7776.227		-109.6416	
22.86129	7769.991		-109.4384	
22.91528	7763.833		-109.2369	
22.96926	7757.769		-109.0377	
23.02325	7751.817		-108.8413	
23.07723	7745.991		-108.6483	
23.13122	7740.279		-108.4593	
23.18521	7734.661		-108.275	
23.23919	7729.111		-108.0959	
23.29318	7723.603		-107.9228	
23.34716	7718.108		-107.7561	
23.40115	7712.619		-107.5963	
23.45514	7707.129		-107.4437	
23.50912	7701.637		-107.2986	
23.56311	7696.142		-107.1608	
23.6171	7690.658		-107.0304	
23.67108	7685.21		-106.9071	
23.72507	7679.824		-106.7909	
23.77905	7674.522		-106.6814	
23.83304	7669.317		-106.5784	
23.88703	7664.2		-106.4818	
23.94101	7659.156		-106.3913	
23.995	7654.16		-106.3067	
24.04898	7649.188		-106.2279	
24.10297	7644.212		-106.1548	
24.15696	7639.196		-106.0873	
24.21094	7634.098		-106.0256	
24.26493	7628.88		-105.9697	
24.31891	7623.524		-105.9198	
24.3729	7618.03		-105.8762	
24.42689	7612.408		-105.8391	
24.48087	7606.689		-105.8087	
24.53486	7600.911		-105.7851	
24.58884	7595.108		-105.7686	
24.64283	7589.299		-105.7591	
24.69682	7583.483		-105.7566	
24.7508	7577.658		-105.7609	
24.80479	7571.819		-105.7717	
24.85878	7565.957		-105.7885	
24.91276	7560.055		-105.811	
24.96675	7554.101		-105.8383	
25.02073	7548.098		-105.8698	
25.07472	7542.056		-105.9044	
25.12871	7535.994		-105.9412	
25.18269	7529.932		-105.979	
25.23668	7523.875		-106.0168	
25.29066	7517.813		-106.0536	
25.34465	7511.737		-106.0884	
25.39864	7505.639		-106.1203	
25.45262	7499.523		-106.1484	
25.50661	7493.4		-106.172	
25.56059	7487.279		-106.1903	
25.61458	7481.174		-106.2023	
25.66857	7475.095		-106.2073	
25.72255	7469.051		-106.2044	
25.77654	7463.041		-106.1927	
25.83052	7457.061		-106.1714	
25.88451	7451.107		-106.1396	
25.9385	7445.182		-106.0965	
25.99248	7439.296		-106.0415	
26.04647	7433.467		-105.974	
26.10046	7427.712		-105.8936	
26.15444	7422.031		-105.7999	
26.20843	7416.4		-105.6928	
26.26241	7410.785		-105.5727	
26.3164	7405.157		-105.4399	
26.37039	7399.492		-105.295	
26.42437	7393.78		-105.1391	
26.47836	7388.027		-104.9731	
26.53234	7382.261		-104.7983	
26.58633	7376.513		-104.6163	
26.64032	7370.815		-104.4284	
26.6943	7365.184		-104.2363	
26.74829	7359.633		-104.0413	
26.80227	7354.157		-103.8448	
26.85626	7348.741		-103.6482	
26.91025	7343.367		-103.4526	
26.96423	7338.018		-103.2593	
27.01822	7332.662		-103.0693	
27.07221	7327.274		-102.8835	
27.12619	7321.849		-102.7028	
27.18018	7316.39		-102.5278	
27.23416	7310.902		-102.3592	
27.28815	7305.39		-102.1975	
27.34214	7299.855		-102.0436	
27.39612	7294.301		-101.8979	
27.45011	7288.73		-101.7614	
27.5041	7283.147		-101.6346	
27.55808	7277.571		-101.5185	
27.61207	7272.03		-101.4137	
27.66605	7266.55		-101.3209	
27.72004	7261.144		-101.2406	
27.77402	7255.818		-101.1729	
27.82801	7250.572		-101.118	
27.882	7245.384		-101.0755	
27.93598	7240.225		-101.045	
27.98997	7235.064		-101.0259	
28.04395	7229.885		-101.0175	
28.09794	7224.689		-101.0188	
28.15193	7219.48		-101.0287	
28.20591	7214.264		-101.0461	
28.2599	7209.048		-101.07	
28.31389	7203.841		-101.0992	
28.36787	7198.641		-101.1327	
28.42186	7193.436		-101.1695	
28.47584	7188.214		-101.2091	
28.52983	7182.962		-101.2506	
28.58382	7177.678		-101.2936	
28.6378	7172.371		-101.3374	
28.69179	7167.054		-101.3816	
28.74578	7161.725		-101.4252	
28.79976	7156.367		-101.4677	
28.85375	7150.964		-101.5079	
28.90773	7145.512		-101.545	
28.96172	7140.006		-101.5781	
29.01571	7134.441		-101.6064	
29.06969	7128.817		-101.6291	
29.12368	7123.14		-101.6455	
29.17766	7117.429		-101.6549	
29.23165	7111.709		-101.6569	
29.28563	7106.008		-101.6511	
29.33962	7100.361		-101.6372	
29.39361	7094.783		-101.6153	
29.44759	7089.261		-101.5855	
29.50158	7083.772		-101.5483	
29.55557	7078.294		-101.5042	
29.60955	7072.806		-101.4539	
29.66354	7067.278		-101.3983	
29.71752	7061.693		-101.3383	
29.77151	7056.049		-101.2748	
29.8255	7050.346		-101.2086	
29.87948	7044.583		-101.1404	
29.93347	7038.768		-101.071	
29.98746	7032.908		-101.0008	
30.04144	7027.017		-100.9302	
30.09543	7021.109		-100.8594	
30.14941	7015.197		-100.7887	
30.2034	7009.292		-100.7179	
30.25739	7003.413		-100.6471	
30.31137	6997.576		-100.5761	
30.36536	6991.797		-100.5046	
30.41934	6986.079		-100.4326	
30.47333	6980.417		-100.3599	
30.52732	6974.8		-100.2864	
30.5813	6969.223		-100.2121	
30.63529	6963.689		-100.1367	
30.68927	6958.202		-100.0601	
30.74326	6952.763		-99.98204	
30.79725	6947.38		-99.90231	
30.85123	6942.054		-99.82064	
30.90522	6936.785		-99.73673	
30.9592	6931.569		-99.65034	
31.01319	6926.401		-99.56123	
31.06718	6921.277		-99.46927	
31.12116	6916.2		-99.37437	
31.17515	6911.17		-99.27654	
31.22914	6906.194		-99.17583	
31.28312	6901.284		-99.07235	
31.33711	6896.456		-98.96631	
31.39109	6891.709		-98.85803	
31.44508	6887.036		-98.74794	
31.49907	6882.414		-98.63657	
31.55305	6877.802		-98.52453	
31.60704	6873.149		-98.41248	
31.66102	6868.418		-98.30124	
31.71501	6863.588		-98.19162	
31.769	6858.647		-98.08453	
31.82298	6853.585		-97.98091	
31.87697	6848.398		-97.88162	
31.93095	6843.088		-97.78748	
31.98494	6837.671		-97.69917	
32.03893	6832.178		-97.61721	
32.09291	6826.641		-97.54205	
32.1469	6821.083		-97.47391	
32.20089	6815.515		-97.41285	
32.25487	6809.948		-97.35873	
32.30886	6804.385		-97.31124	
32.36284	6798.826		-97.26991	
32.41683	6793.269		-97.23409	
32.47081	6787.711		-97.203	
32.5248	6782.153		-97.17579	
32.57879	6776.594		-97.15151	
32.63277	6771.031		-97.12921	
32.68676	6765.466		-97.10789	
32.74075	6759.908		-97.08664	
32.79473	6754.37		-97.06456	
32.84872	6748.873		-97.04089	
32.9027	6743.442		-97.0149	
32.95669	6738.088		-96.98595	
33.01068	6732.817		-96.95348	
33.06466	6727.63		-96.91702	
33.11865	6722.514		-96.87619	
33.17263	6717.456		-96.83071	
33.22662	6712.446		-96.78036	
33.28061	6707.473		-96.72496	
33.33459	6702.514		-96.66441	
33.38858	6697.544		-96.59863	
33.44257	6692.548		-96.5276	
33.49655	6687.515		-96.45135	
33.55054	6682.432		-96.36997	
33.60452	6677.286		-96.2837	
33.65851	6672.071		-96.19292	
33.71249	6666.786		-96.09821	
33.76648	6661.438		-96.00034	
33.82047	6656.036		-95.90024	
33.87445	6650.588		-95.79896	
33.92844	6645.102		-95.69755	
33.98243	6639.597		-95.59707	
34.03641	6634.098		-95.4985	
34.0904	6628.626		-95.4027	
34.14439	6623.205		-95.31045	
34.19837	6617.852		-95.22235	
34.25236	6612.572		-95.13888	
34.30634	6607.368		-95.06036	
34.36033	6602.237		-94.98692	
34.41431	6597.167		-94.91853	
34.4683	6592.147		-94.85506	
34.52229	6587.165		-94.79627	
34.57627	6582.204		-94.74191	
34.63026	6577.262		-94.69167	
34.68425	6572.349		-94.64517	
34.73823	6567.482		-94.60201	
34.79222	6562.681		-94.56178	
34.8462	6557.955		-94.52405	
34.90019	6553.294		-94.48843	
34.95417	6548.684		-94.4546	
35.00816	6544.098		-94.42228	
35.06215	6539.501		-94.3913	
35.11613	6534.863		-94.36153	
35.17012	6530.158		-94.33289	
35.22411	6525.382		-94.30532	
35.27809	6520.532		-94.27876	
35.33208	6515.607		-94.25311	
35.38607	6510.611		-94.22833	
35.44005	6505.552		-94.20432	
35.49404	6500.436		-94.18095	
35.54802	6495.269		-94.15812	
35.60201	6490.058		-94.13574	
35.65599	6484.808		-94.11382	
35.70998	6479.53		-94.09243	
35.76397	6474.236		-94.07178	
35.81796	6468.937		-94.05212	
35.87194	6463.635		-94.03372	
35.92593	6458.329		-94.01676	
35.97991	6453.017		-94.00136	
36.0339	6447.7		-93.98751	
36.08788	6442.387		-93.97504	
36.14187	6437.089		-93.96366	
36.19586	6431.806		-93.95297	
36.24984	6426.538		-93.9425	
36.30383	6421.284		-93.93166	
36.35781	6416.042		-93.91984	
36.4118	6410.822		-93.90636	
36.46579	6405.641		-93.8905	
36.51977	6400.511		-93.87157	
36.57376	6395.438		-93.84888	
36.62775	6390.415		-93.82171	
36.68173	6385.433		-93.78938	
36.73572	6380.476		-93.75123	
36.7897	6375.525		-93.70665	
36.84369	6370.561		-93.65511	
36.89767	6365.567		-93.59618	
36.95166	6360.544		-93.52953	
37.00565	6355.485		-93.45499	
37.05964	6350.385		-93.37254	
37.11362	6345.238		-93.28228	
37.16761	6340.044		-93.18444	
37.22159	6334.813		-93.07935	
37.27558	6329.559		-92.96743	
37.32956	6324.307		-92.84921	
37.38355	6319.082		-92.72533	
37.43754	6313.904		-92.59647	
37.49152	6308.792		-92.46348	
37.54551	6303.75		-92.32724	
37.59949	6298.769		-92.18873	
37.65348	6293.831		-92.04896	
37.70747	6288.92		-91.90902	
37.76145	6284.03		-91.77004	
37.81544	6279.157		-91.63317	
37.86943	6274.289		-91.49947	
37.92341	6269.408		-91.36996	
37.9774	6264.498		-91.24555	
38.03138	6259.56		-91.12699	
38.08537	6254.613		-91.01495	
38.13935	6249.677		-90.90994	
38.19334	6244.771		-90.81244	
38.24733	6239.901		-90.72284	
38.30132	6235.063		-90.64151	
38.3553	6230.239		-90.56873	
38.40929	6225.417		-90.50471	
38.46327	6220.587		-90.44956	
38.51726	6215.75		-90.40333	
38.57124	6210.91		-90.36591	
38.62523	6206.081		-90.33713	
38.67922	6201.277		-90.31666	
38.7332	6196.503		-90.30408	
38.78719	6191.749		-90.29885	
38.84118	6187.005		-90.3004	
38.89516	6182.273		-90.30805	
38.94915	6177.56		-90.32115	
39.00313	6172.871		-90.33908	
39.05712	6168.207		-90.36127	
39.11111	6163.572		-90.38719	
39.16509	6158.965		-90.41632	
39.21908	6154.384		-90.44818	
39.27306	6149.819		-90.48228	
39.32705	6145.26		-90.5181	
39.38103	6140.693		-90.5551	
39.43502	6136.115		-90.59266	
39.48901	6131.521		-90.6302	
39.543	6126.903		-90.66711	
39.59698	6122.242		-90.70277	
39.65097	6117.521		-90.73655	
39.70495	6112.74		-90.76781	
39.75894	6107.907		-90.79595	
39.81292	6103.039		-90.8204	
39.86691	6098.144		-90.84064	
39.9209	6093.215		-90.85619	
39.97488	6088.246		-90.86658	
40.02887	6083.226		-90.87144	
40.08286	6078.145		-90.87042	
40.13684	6073.015		-90.86327	
40.19083	6067.852		-90.84985	
40.24481	6062.67		-90.83016	
40.2988	6057.478		-90.8043	
40.35279	6052.285		-90.77249	
40.40677	6047.1		-90.73505	
40.46076	6041.927		-90.69229	
40.51474	6036.766		-90.6446	
40.56873	6031.618		-90.59236	
40.62271	6026.487		-90.53599	
40.6767	6021.377		-90.47584	
40.73069	6016.282		-90.4122	
40.78468	6011.19		-90.34528	
40.83866	6006.082		-90.27517	
40.89265	6000.943		-90.20193	
40.94663	5995.761		-90.12563	
41.00062	5990.531		-90.04639	
41.0546	5985.259		-89.96442	
41.10859	5979.962		-89.87993	
41.16258	5974.67		-89.79318	
41.21656	5969.416		-89.70442	
41.27055	5964.232		-89.61391	
41.32454	5959.14		-89.52185	
41.37852	5954.154		-89.42842	
41.43251	5949.284		-89.33382	
41.48649	5944.525		-89.23822	
41.54048	5939.849		-89.14182	
41.59447	5935.216		-89.04478	
41.64845	5930.588		-88.94722	
41.70244	5925.935		-88.84918	
41.75642	5921.24		-88.75067	
41.81041	5916.504		-88.65163	
41.8644	5911.745		-88.552	
41.91838	5906.998		-88.45171	
41.97237	5902.302		-88.35075	
42.02636	5897.681		-88.2492	
42.08034	5893.145		-88.14715	
42.13433	5888.699		-88.04482	
42.18831	5884.349		-87.94249	
42.2423	5880.089		-87.84057	
42.29628	5875.901		-87.73957	
42.35027	5871.756		-87.64008	
42.40426	5867.621		-87.54275	
42.45824	5863.46		-87.44822	
42.51223	5859.239		-87.35711	
42.56622	5854.936		-87.27	
42.6202	5850.543		-87.18748	
42.67419	5846.062		-87.11002	
42.72817	5841.507		-87.03808	
42.78216	5836.893		-86.97203	
42.83615	5832.238		-86.91214	
42.89013	5827.56		-86.85859	
42.94412	5822.868		-86.81149	
42.9981	5818.171		-86.77087	
43.05209	5813.481		-86.73669	
43.10608	5808.797		-86.70882	
43.16006	5804.111		-86.68696	
43.21405	5799.406		-86.67074	
43.26804	5794.661		-86.65964	
43.32202	5789.859		-86.65302	
43.37601	5785		-86.65021	
43.42999	5780.099		-86.65049	
43.48398	5775.163		-86.65318	
43.53796	5770.195		-86.65761	
43.59195	5765.202		-86.66309	
43.64594	5760.203		-86.66898	
43.69992	5755.218		-86.67465	
43.75391	5750.264		-86.67943	
43.8079	5745.35		-86.68267	
43.86188	5740.479		-86.68369	
43.91587	5735.655		-86.68179	
43.96985	5730.888		-86.67625	
44.02384	5726.166		-86.66634	
44.07783	5721.472		-86.65131	
44.13181	5716.79		-86.63044	
44.1858	5712.112		-86.60304	
44.23978	5707.438		-86.56855	
44.29377	5702.772		-86.52648	
44.34776	5698.118		-86.47653	
44.40174	5693.472		-86.41853	
44.45573	5688.825		-86.35243	
44.50972	5684.172		-86.27833	
44.5637	5679.508		-86.1964	
44.61769	5674.819		-86.10693	
44.67167	5670.1		-86.01037	
44.72566	5665.351		-85.90732	
44.77964	5660.582		-85.79853	
44.83363	5655.794		-85.68484	
44.88762	5650.99		-85.56723	
44.9416	5646.171		-85.44663	
44.99559	5641.347		-85.32397	
45.04958	5636.536		-85.2001	
45.10356	5631.756		-85.07584	
45.15755	5627.021		-84.9519	
45.21154	5622.335		-84.82893	
45.26552	5617.701		-84.70754	
45.31951	5613.114		-84.5882	
45.37349	5608.574		-84.47129	
45.42748	5604.081		-84.35713	
45.48146	5599.632		-84.24599	
45.53545	5595.216		-84.13813	
45.58944	5590.818		-84.03375	
45.64342	5586.425		-83.93309	
45.69741	5582.026		-83.83639	
45.7514	5577.62		-83.74388	
45.80538	5573.213		-83.65586	
45.85937	5568.818		-83.57261	
45.91335	5564.451		-83.49442	
45.96734	5560.114		-83.42153	
46.02133	5555.806		-83.35416	
46.07531	5551.523		-83.29244	
46.1293	5547.26		-83.23639	
46.18328	5543.005		-83.18594	
46.23727	5538.75		-83.14091	
46.29126	5534.488		-83.10105	
46.34524	5530.206		-83.06604	
46.39923	5525.896		-83.03549	
46.45322	5521.558		-83.00901	
46.5072	5517.201		-82.98618	
46.56119	5512.82		-82.96659	
46.61517	5508.412		-82.94991	
46.66916	5503.98		-82.93588	
46.72314	5499.535		-82.92437	
46.77713	5495.085		-82.91531	
46.83112	5490.637		-82.90871	
46.88511	5486.196		-82.90456	
46.93909	5481.758		-82.90279	
46.99308	5477.322		-82.90329	
47.04706	5472.89		-82.90587	
47.10105	5468.465		-82.91027	
47.15503	5464.042		-82.91621	
47.20902	5459.615		-82.92333	
47.26301	5455.178		-82.9313	
47.31699	5450.723		-82.9397	
47.37098	5446.229		-82.9481	
47.42496	5441.69		-82.95601	
47.47895	5437.109		-82.9629	
47.53294	5432.502		-82.96823	
47.58692	5427.89		-82.97145	
47.64091	5423.292		-82.97197	
47.6949	5418.71		-82.96922	
47.74888	5414.139		-82.96263	
47.80287	5409.566		-82.95169	
47.85685	5404.986		-82.93591	
47.91084	5400.396		-82.91489	
47.96482	5395.799		-82.88831	
48.01881	5391.195		-82.85596	
48.0728	5386.58		-82.8177	
48.12679	5381.955		-82.77345	
48.18077	5377.325		-82.72319	
48.23476	5372.695		-82.66692	
48.28874	5368.067		-82.60471	
48.34273	5363.441		-82.53664	
48.39671	5358.823		-82.46285	
48.4507	5354.218		-82.38351	
48.50469	5349.627		-82.29881	
48.55867	5345.041		-82.20897	
48.61266	5340.45		-82.1143	
48.66665	5335.859		-82.01517	
48.72063	5331.284		-81.91203	
48.77462	5326.743		-81.80539	
48.8286	5322.254		-81.6958	
48.88259	5317.816		-81.58379	
48.93658	5313.417		-81.46988	
48.99056	5309.039		-81.35462	
49.04455	5304.673		-81.23854	
49.09853	5300.31		-81.12216	
49.15252	5295.943		-81.00601	
49.2065	5291.569		-80.89061	
49.26049	5287.186		-80.77647	
49.31448	5282.798		-80.66409	
49.36847	5278.412		-80.55396	
49.42245	5274.037		-80.44652	
49.47644	5269.685		-80.34218	
49.53042	5265.367		-80.24133	
49.58441	5261.093		-80.14429	
49.63839	5256.866		-80.05128	
49.69238	5252.685		-79.96246	
49.74637	5248.54		-79.8779	
49.80035	5244.417		-79.79767	
49.85434	5240.298		-79.72177	
49.90833	5236.172		-79.65021	
49.96231	5232.024		-79.58295	
50.0163	5227.846		-79.52	
50.07028	5223.642		-79.46141	
50.12427	5219.424		-79.4072	
50.17826	5215.212		-79.35742	
50.23224	5211.022		-79.31207	
50.28623	5206.867		-79.27115	
50.34021	5202.751		-79.23466	
50.3942	5198.681		-79.20262	
50.44818	5194.659		-79.17506	
50.50217	5190.684		-79.152	
50.55616	5186.734		-79.13343	
50.61015	5182.779		-79.11929	
50.66413	5178.792		-79.10951	
50.71812	5174.762		-79.10395	
50.7721	5170.679		-79.10243	
50.82609	5166.531		-79.1047	
50.88007	5162.317		-79.11043	
50.93406	5158.046		-79.11922	
50.98805	5153.729		-79.13064	
51.04203	5149.384		-79.14419	
51.09602	5145.041		-79.15934	
51.15001	5140.717		-79.17559	
51.20399	5136.414		-79.19251	
51.25798	5132.118		-79.20972	
51.31196	5127.805		-79.22684	
51.36595	5123.454		-79.24349	
51.41994	5119.062		-79.25929	
51.47392	5114.632		-79.27383	
51.52791	5110.17		-79.28664	
51.58189	5105.683		-79.29724	
51.63588	5101.175		-79.30508	
51.68987	5096.657		-79.30957	
51.74385	5092.137		-79.3101	
51.79784	5087.63		-79.30608	
51.85183	5083.153		-79.29696	
51.90581	5078.716		-79.28232	
51.9598	5074.318		-79.2618	
52.01378	5069.95		-79.23514	
52.06777	5065.604		-79.2021	
52.12175	5061.273		-79.16254	
52.17574	5056.968		-79.11631	
52.22973	5052.69		-79.06334	
52.28371	5048.434		-79.0036	
52.3377	5044.189		-78.93713	
52.39169	5039.939		-78.86404	
52.44567	5035.669		-78.7845	
52.49966	5031.376		-78.69881	
52.55364	5027.059		-78.60735	
52.60763	5022.709		-78.51054	
52.66162	5018.325		-78.40892	
52.7156	5013.923		-78.30302	
52.76959	5009.52		-78.19337	
52.82357	5005.122		-78.08047	
52.87756	5000.74		-77.96477	
52.93155	4996.383		-77.84671	
52.98553	4992.05		-77.72669	
53.03952	4987.737		-77.60506	
53.09351	4983.444		-77.48219	
53.14749	4979.168		-77.35841	
53.20148	4974.912		-77.23417	
53.25546	4970.67		-77.10992	
53.30945	4966.441		-76.98614	
53.36343	4962.229		-76.86325	
53.41742	4958.044		-76.74165	
53.47141	4953.897		-76.62167	
53.52539	4949.793		-76.50355	
53.57938	4945.738		-76.38748	
53.63337	4941.735		-76.27365	
53.68735	4937.783		-76.16219	
53.74134	4933.864		-76.05315	
53.79532	4929.961		-75.94659	
53.84931	4926.072		-75.84251	
53.9033	4922.196		-75.74104	
53.95728	4918.329		-75.64227	
54.01127	4914.465		-75.54637	
54.06525	4910.601		-75.45348	
54.11924	4906.739		-75.36369	
54.17323	4902.883		-75.27708	
54.22721	4899.033		-75.19371	
54.2812	4895.194		-75.11361	
54.33519	4891.365		-75.03674	
54.38917	4887.529		-74.96305	
54.44316	4883.672		-74.89246	
54.49714	4879.783		-74.82478	
54.55113	4875.853		-74.75988	
54.60511	4871.878		-74.69759	
54.6591	4867.868		-74.63776	
54.71309	4863.832		-74.58027	
54.76707	4859.774		-74.5249	
54.82106	4855.696		-74.47144	
54.87505	4851.604		-74.4196	
54.92903	4847.505		-74.36909	
54.98302	4843.402		-74.31962	
55.03701	4839.301		-74.27088	
55.09099	4835.211		-74.2226	
55.14498	4831.139		-74.17449	
55.19896	4827.085		-74.12634	
55.25295	4823.048		-74.07791	
55.30693	4819.026		-74.02896	
55.36092	4815.013		-73.97924	
55.41491	4811.001		-73.92845	
55.46889	4806.978		-73.87627	
55.52288	4802.936		-73.82239	
55.57687	4798.879		-73.76646	
55.63085	4794.819		-73.70816	
55.68484	4790.76		-73.64721	
55.73882	4786.695		-73.58335	
55.79281	4782.624		-73.5164	
55.84679	4778.551		-73.44623	
55.90078	4774.479		-73.37283	
55.95477	4770.41		-73.29634	
56.00875	4766.348		-73.21697	
56.06274	4762.305		-73.13503	
56.11673	4758.281		-73.0509	
56.17071	4754.268		-72.96501	
56.2247	4750.255		-72.87781	
56.27869	4746.241		-72.7897	
56.33267	4742.235		-72.70116	
56.38666	4738.243		-72.61258	
56.44064	4734.256		-72.52438	
56.49463	4730.257		-72.43693	
56.54861	4726.229		-72.35052	
56.6026	4722.167		-72.26546	
56.65659	4718.074		-72.18204	
56.71058	4713.959		-72.10052	
56.76456	4709.84		-72.0211	
56.81855	4705.744		-71.94389	
56.87253	4701.698		-71.86897	
56.92652	4697.724		-71.79632	
56.9805	4693.841		-71.72587	
57.03449	4690.056		-71.65758	
57.08848	4686.364		-71.59142	
57.14246	4682.744		-71.52743	
57.19645	4679.164		-71.46568	
57.25043	4675.599		-71.40626	
57.30442	4672.029		-71.34925	
57.35841	4668.448		-71.29472	
57.41239	4664.85		-71.24272	
57.46638	4661.228		-71.19321	
57.52037	4657.584		-71.14613	
57.57435	4653.932		-71.10127	
57.62834	4650.283		-71.05843	
57.68232	4646.638		-71.01732	
57.73631	4642.996		-70.97765	
57.79029	4639.354		-70.93919	
57.84428	4635.717		-70.90173	
57.89827	4632.081		-70.86516	
57.95226	4628.447		-70.8294	
58.00624	4624.819		-70.79443	
58.06023	4621.193		-70.76032	
58.11421	4617.563		-70.72717	
58.1682	4613.92		-70.69511	
58.22218	4610.25		-70.66428	
58.27617	4606.544		-70.63483	
58.33016	4602.785		-70.6069	
58.38414	4598.96		-70.5806	
58.43813	4595.066		-70.55603	
58.49212	4591.105		-70.53318	
58.5461	4587.09		-70.51195	
58.60009	4583.038		-70.49213	
58.65407	4578.971		-70.47337	
58.70806	4574.912		-70.45522	
58.76205	4570.875		-70.43709	
58.81603	4566.872		-70.41828	
58.87002	4562.899		-70.39803	
58.924	4558.953		-70.37546	
58.97799	4555.031		-70.34967	
59.03197	4551.134		-70.31974	
59.08596	4547.262		-70.28478	
59.13995	4543.412		-70.244	
59.19394	4539.565		-70.19662	
59.24792	4535.704		-70.14194	
59.30191	4531.817		-70.07928	
59.35589	4527.905		-70.008	
59.40988	4523.974		-69.92754	
59.46386	4520.038		-69.83736	
59.51785	4516.108		-69.73687	
59.57184	4512.198		-69.62552	
59.62582	4508.315		-69.50277	
59.67981	4504.456		-69.36811	
59.7338	4500.613		-69.22107	
59.78778	4496.783		-69.06126	
59.84177	4492.967		-68.88842	
59.89575	4489.164		-68.70242	
59.94974	4485.37		-68.50321	
60.00373	4481.583		-68.29091	
60.05771	4477.803		-68.06577	
60.1117	4474.032		-67.82819	
60.16568	4470.28		-67.5787	
60.21967	4466.557		-67.31801	
60.27365	4462.869		-67.04696	
60.32764	4459.211		-66.76653	
60.38163	4455.574		-66.47779	
60.43562	4451.947		-66.18196	
60.4896	4448.321		-65.88021	
60.54359	4444.686		-65.57373	
60.59757	4441.035		-65.26367	
60.65156	4437.36		-64.95112	
60.70554	4433.658		-64.63705	
60.75953	4429.933		-64.32234	
60.81352	4426.197		-64.00765	
60.8675	4422.468		-63.69358	
60.92149	4418.766		-63.38051	
60.97548	4415.113		-63.06873	
61.02946	4411.536		-62.75843	
61.08345	4408.062		-62.44972	
61.13743	4404.701		-62.14261	
61.19142	4401.442		-61.83707	
61.24541	4398.264		-61.53304	
61.29939	4395.134		-61.23032	
61.35338	4392.022		-60.92873	
61.40736	4388.903		-60.62799	
61.46135	4385.76		-60.3278	
61.51534	4382.582		-60.02776	
61.56932	4379.367		-59.72736	
61.62331	4376.126		-59.42603	
61.6773	4372.875		-59.12311	
61.73128	4369.64		-58.81781	
61.78527	4366.458		-58.50926	
61.83925	4363.362		-58.19654	
61.89324	4360.371		-57.87875	
61.94722	4357.485		-57.55499	
62.00121	4354.697		-57.22431	
62.0552	4351.997		-56.88587	
62.10918	4349.376		-56.53878	
62.16317	4346.815		-56.18222	
62.21716	4344.277		-55.8154	
62.27114	4341.724		-55.43765	
62.32513	4339.121		-55.04841	
62.37911	4336.442		-54.64724	
62.4331	4333.659		-54.23376	
62.48709	4330.759		-53.80779	
62.54107	4327.753		-53.36914	
62.59506	4324.67		-52.91774	
62.64904	4321.543		-52.45359	
62.70303	4318.409		-51.97665	
62.75702	4315.302		-51.48685	
62.811	4312.246		-50.98397	
62.86499	4309.248		-50.46756	
62.91898	4306.306		-49.93712	
62.97296	4303.407		-49.3919	
63.02695	4300.536		-48.83101	
63.08093	4297.672		-48.25343	
63.13492	4294.786		-47.65799	
63.1889	4291.856		-47.0434	
63.24289	4288.873		-46.40821	
63.29688	4285.833		-45.75109	
63.35086	4282.751		-45.07051	
63.40485	4279.654		-44.36499	
63.45884	4276.581		-43.63304	
63.51282	4273.558		-42.87317	
63.56681	4270.607		-42.08395	
63.62079	4267.749		-41.26393	
63.67478	4264.996		-40.4116	
63.72877	4262.359		-39.52558	
63.78275	4259.845		-38.60427	
63.83674	4257.452		-37.64608	
63.89072	4255.167		-36.64938	
63.94471	4252.97		-35.61252	
63.9987	4250.839		-34.53382	
64.05268	4248.76		-33.41156	
64.10667	4246.729		-32.24402	
64.16065	4244.742		-31.02951	
64.21464	4242.794		-29.76652	
64.26863	4240.894		-28.45339	
64.32262	4239.064		-27.08918	
64.3766	4237.324		-25.67265	
64.43059	4235.681		-24.20289	
64.48457	4234.132		-22.67924	
64.53856	4232.677		-21.10127	
64.59254	4231.31		-19.46882	
64.64653	4230.021		-17.78187	
64.70052	4228.798		-16.04058	
64.7545	4227.628		-14.24515	
64.80849	4226.5		-12.39572	
64.86247	4225.403		-10.49239	
64.91646	4224.337		-8.535121	
64.97044	4223.315		-6.523687	
65.02443	4222.358		-4.45788	
65.07842	4221.487		-2.33691	
65.13241	4220.718		-0.1607062	
65.18639	4220.059		2.07179	
65.24038	4219.513		4.361526	
65.29436	4219.078		6.709584	
65.34835	4218.76		9.117163	
65.40234	4218.578		11.58557	
65.45632	4218.55		14.11616	
65.51031	4218.673		16.7105	
65.56429	4218.94		19.37016	
65.61828	4219.35		22.09688	
65.67226	4219.911		24.89259	
65.72625	4220.631		27.75937	
65.78024	4221.515		30.69962	
65.83422	4222.568		33.71565	
65.88821	4223.793		36.81022	
65.9422	4225.2		39.98663	
65.99619	4226.795		43.24715	
66.05017	4228.591		46.59551	
66.10416	4230.59		50.03522	
66.15814	4232.788		53.56991	
66.21213	4235.175		57.2033	
66.26611	4237.749		60.93914	
66.3201	4240.504		64.78132	
66.37408	4243.432		68.73354	
66.42807	4246.528		72.79949	
66.48206	4249.792		76.98275	
66.53604	4253.226		81.28671	
66.59003	4256.834		85.71468	
66.64401	4260.632		90.26952	
66.698	4264.633		94.95425	
66.75199	4268.85		99.77242	
66.80598	4273.293		104.7254	
66.85996	4277.969		109.8166	
66.91395	4282.886		115.0489	
66.96793	4288.048		120.425	
67.02192	4293.454		125.9479	
67.0759	4299.102		131.6203	
67.12989	4304.978		137.4456	
67.18388	4311.073		143.4267	
67.23786	4317.385		149.567	
67.29185	4323.918		155.8701	
67.34583	4330.697		162.3394	
67.39982	4337.757		168.9789	
67.4538	4345.138		175.7926	
67.50779	4352.862		182.7844	
67.56178	4360.946		189.9599	
67.61577	4369.4		197.3216	
67.66975	4378.23		204.8752	
67.72374	4387.442		212.6263	
67.77773	4397.038		220.5798	
67.83171	4407.021		228.7413	
67.8857	4417.385		237.1159	
67.93968	4428.126		245.7091	
67.99367	4439.248		254.5259	
68.04765	4450.767		263.5716	
68.10164	4462.707		272.8508	
68.15562	4475.097		282.368	
68.20961	4487.984		292.1271	
68.2636	4501.418		302.1316	
68.31758	4515.443		312.3835	
68.37157	4530.093		322.8863	
68.42556	4545.38		333.6381	
68.47955	4561.317		344.64	
68.53353	4577.909		355.8908	
68.58752	4595.161		367.3889	
68.6415	4613.069		379.1306	
68.69549	4631.619		391.1117	
68.74947	4650.785		403.3269	
68.80346	4670.552		415.7698	
68.85744	4690.913		428.4329	
68.91143	4711.872		441.3078	
68.96542	4733.441		454.3849	
69.0194	4755.655		467.6537	
69.07339	4778.54		481.1029	
69.12737	4802.118		494.7199	
69.18137	4826.419		508.4933	
69.23535	4851.46		522.4052	
69.28934	4877.262		536.4424	
69.34332	4903.838		550.5889	
69.39731	4931.201		564.8284	
69.45129	4959.362		579.1435	
69.50528	4988.329		593.5163	
69.55927	5018.122		607.9283	
69.61325	5048.764		622.3608	
69.66724	5080.283		636.7942	
69.72122	5112.708		651.2088	
69.77521	5146.069		665.5843	
69.82919	5180.4		679.8999	
69.88318	5215.744		694.1344	
69.93716	5252.15		708.2661	
69.99115	5289.68		722.2729	
70.04514	5328.398		736.1343	
70.09913	5368.339		749.8235	
70.15311	5409.542		763.3196	
70.2071	5452.05		776.5987	
70.26109	5495.894		789.637	
70.31507	5541.085		802.4101	
70.36906	5587.604		814.8934	
70.42304	5635.406		827.0619	
70.47703	5684.439		838.8901	
70.53101	5734.642		850.3527	
70.585	5785.959		861.4236	
70.63898	5838.321		872.0771	
70.69297	5891.652		882.2868	
70.74696	5945.871		892.0277	
70.80094	6000.909		901.2739	
70.85493	6056.71		910.0015	
70.90892	6113.194		918.1835	
70.96291	6170.307		925.7982	
71.01689	6227.984		932.8214	
71.07088	6286.165		939.2322	
71.12486	6344.792		945.01	
71.17885	6403.819		950.1356	
71.23283	6463.208		954.5914	
71.28682	6522.927		958.3615	
71.34081	6582.958		961.4316	
71.39479	6643.282		963.7894	
71.44878	6703.865		965.4248	
71.50276	6764.666		966.3287	
71.55675	6825.648		966.4965	
71.61073	6886.777		965.9236	
71.66473	6948.03		964.6082	
71.71871	7009.354		962.5509	
71.7727	7070.721		959.7551	
71.82668	7132.088		956.2239	
71.88067	7193.393		951.9652	
71.93465	7254.578		946.9878	
71.98864	7315.587		941.3028	
72.04263	7376.362		934.9231	
72.09661	7436.831		927.8636	
72.1506	7496.918		920.141	
72.20458	7556.543		911.7736	
72.25857	7615.624		902.7812	
72.31255	7674.057		893.1852	
72.36654	7731.724		883.0077	
72.42052	7788.491		872.2736	
72.47452	7844.234		861.0054	
72.5285	7898.825		849.2318	
72.58249	7952.181		836.9776	
72.63647	8004.237		824.27	
72.69046	8054.938		811.1351	
72.74445	8104.229		797.601	
72.79843	8152.064		783.6952	
72.85242	8198.413		769.4455	
72.9064	8243.263		754.8797	
72.96039	8286.612		740.0256	
73.01437	8328.46		724.9111	
73.06836	8368.807		709.5639	
73.12234	8407.653		694.0116	
73.17633	8445.004		678.2816	
73.23032	8480.857		662.4017	
73.28431	8515.227		646.3969	
73.33829	8548.114		630.2991	
73.39228	8579.543		614.1334	
73.44627	8609.551		597.9266	
73.50025	8638.196		581.7055	
73.55424	8665.541		565.4966	
73.60822	8691.638		549.3259	
73.66221	8716.529		533.2185	
73.71619	8740.263		517.1993	
73.77018	8762.899		501.2925	
73.82417	8784.501		485.5214	
73.87815	8805.112		469.9088	
73.93214	8824.775		454.4763	
73.98612	8843.523		439.2453	
74.04011	8861.39		424.2349	
74.0941	8878.399		409.4622	
74.14809	8894.57		394.949	
74.20207	8909.938		380.7097	
74.25606	8924.549		366.7592	
74.31004	8938.474		353.1122	
74.36403	8951.791		339.7807	
74.41801	8964.557		326.776	
74.472	8976.803		314.1074	
74.52599	8988.536		301.7829	
74.57997	8999.769		289.8088	
74.63396	9010.516		278.1898	
74.68794	9020.806		266.929	
74.74193	9030.656		256.028	
74.79591	9040.078		245.487	
74.8499	9049.079		235.304	
74.90388	9057.671		225.4762	
74.95788	9065.874		215.9982	
75.01186	9073.708		206.867	
75.06585	9081.195		198.074	
75.11983	9088.369		189.6121	
75.17382	9095.271		181.4721	
75.22781	9101.959		173.6443	
75.28179	9108.474		166.1185	
75.33578	9114.829		158.8838	
75.38976	9121.022		151.9292	
75.44375	9127.058		145.2432	
75.49773	9132.943		138.8141	
75.55172	9138.688		132.6304	
75.60571	9144.284		126.6805	
75.65969	9149.725		120.9525	
75.71368	9154.995		115.4354	
75.76767	9160.093		110.1172	
75.82166	9165.015		104.9886	
75.87564	9169.761		100.0381	
75.92963	9174.334		95.25568	
75.98361	9178.74		90.63129	
76.0376	9182.99		86.15536	
76.09158	9187.092		81.81882	
76.14557	9191.036		77.6131	
76.19955	9194.795		73.53017	
76.25354	9198.339		69.56255	
76.30753	9201.657		65.70329	
76.36151	9204.767		61.94592	
76.4155	9207.689		58.28453	
76.46948	9210.441		54.71346	
76.52347	9213.021		51.22768	
76.57746	9215.43		47.82205	
76.63145	9217.675		44.49331	
76.68543	9219.774		41.23711	
76.73942	9221.743		38.05011	
76.7934	9223.582		34.92915	
76.84739	9225.29		31.8714	
76.90137	9226.863		28.87434	
76.95536	9228.303		25.93574	
77.00935	9229.601		23.05368	
77.06333	9230.739		20.22647	
77.11732	9231.699		17.4526	
77.1713	9232.472		14.73072	
77.22529	9233.058		12.05963	
77.27927	9233.467		9.438319	
77.33326	9233.706		6.86578	
77.38725	9233.768		4.34091	
77.44124	9233.645		1.863729	
77.49522	9233.335		-0.5667287	
77.54921	9232.834		-2.951033	
77.6032	9232.129		-5.28955	
77.65718	9231.207		-7.582773	
77.71117	9230.066		-9.831135	
77.76515	9228.711		-12.03506	
77.81914	9227.149		-14.1949	
77.87312	9225.401		-16.31094	
77.92711	9223.476		-18.38336	
77.98109	9221.389		-20.41226	
78.03508	9219.164		-22.39765	
78.08907	9216.84		-24.3394	
78.14305	9214.446		-26.23738	
78.19704	9212.002		-28.09143	
78.25103	9209.507		-29.90052	
78.30502	9206.958		-31.66434	
78.359	9204.354		-33.3823	
78.41299	9201.695		-35.05355	
78.46697	9198.983		-36.67731	
78.52096	9196.212		-38.2527	
78.57494	9193.377		-39.77876	
78.62893	9190.485		-41.25448	
78.68291	9187.554		-42.67882	
78.7369	9184.603		-44.05077	
78.79089	9181.654		-45.36944	
78.84487	9178.728		-46.63409	
78.89886	9175.832		-47.84412	
78.95284	9172.972		-48.99919	
79.00684	9170.135		-50.09907	
79.06082	9167.296		-51.14321	
79.11481	9164.423		-52.13167	
79.16879	9161.5		-53.06456	
79.22278	9158.517		-53.94201	
79.27676	9155.471		-54.76442	
79.33075	9152.362		-55.53228	
79.38474	9149.188		-56.24615	
79.43872	9145.948		-56.9067	
79.49271	9142.656		-57.51472	
79.54669	9139.327		-58.07113	
79.60068	9135.977		-58.57702	
79.65466	9132.611		-59.0337	
79.70865	9129.227		-59.44268	
79.76263	9125.82		-59.80574	
79.81662	9122.394		-60.12471	
79.87061	9118.945		-60.40155	
79.9246	9115.469		-60.63808	
79.97858	9111.949		-60.83635	
80.03257	9108.37		-60.99826	
80.08656	9104.714		-61.12583	
80.14054	9100.965		-61.22107	
80.19453	9097.108		-61.286	
80.24851	9093.138		-61.32262	
80.3025	9089.066		-61.33288	
80.35648	9084.926		-61.31867	
80.41047	9080.762		-61.28181	
80.46445	9076.621		-61.224	
80.51844	9072.545		-61.14683	
80.57243	9068.551		-61.05185	
80.62641	9064.637		-60.94045	
80.6804	9060.802		-60.81392	
80.73439	9057.047		-60.67356	
80.78838	9053.376		-60.52063	
80.84236	9049.779		-60.35629	
80.89635	9046.238		-60.18182	
80.95033	9042.742		-59.99847	
81.00432	9039.282		-59.80749	
81.0583	9035.852		-59.61012	
81.11229	9032.448		-59.40762	
81.16628	9029.088		-59.2013	
81.22026	9025.789		-58.99255	
81.27425	9022.571		-58.78282	
81.32823	9019.446		-58.57367	
81.38222	9016.411		-58.36674	
81.4362	9013.453		-58.16368	
81.4902	9010.561		-57.96617	
81.54418	9007.733		-57.77602	
81.59817	9004.973		-57.59495	
81.65215	9002.27		-57.42477	
81.70614	8999.604		-57.2673	
81.76012	8996.947		-57.12436	
81.81411	8994.269		-56.99773	
81.8681	8991.546		-56.88912	
81.92208	8988.768		-56.80015	
81.97607	8985.952		-56.7323	
82.03005	8983.132		-56.68703	
82.08404	8980.346		-56.66569	
82.13802	8977.629		-56.66959	
82.19201	8974.991		-56.70002	
82.24599	8972.426		-56.75808	
82.29999	8969.916		-56.84496	
82.35397	8967.445		-56.96169	
82.40796	8965.004		-57.10931	
82.46194	8962.586		-57.28875	
82.51593	8960.192		-57.50093	
82.56992	8957.809		-57.74656	
82.6239	8955.407		-58.02625	
82.67789	8952.969		-58.34042	
82.73187	8950.484		-58.68938	
82.78586	8947.947		-59.07335	
82.83984	8945.359		-59.4925	
82.89383	8942.729		-59.947	
82.94781	8940.06		-60.43703	
83.0018	8937.344		-60.96278	
83.05579	8934.568		-61.52432	
83.10978	8931.729		-62.12193	
83.16376	8928.821		-62.75561	
83.21775	8925.837		-63.42564	
83.27174	8922.76		-64.13224	
83.32572	8919.575		-64.87572	
83.37971	8916.269		-65.65631	
83.43369	8912.835		-66.47421	
83.48768	8909.272		-67.32963	
83.54166	8905.593		-68.2228	
83.59565	8901.824		-69.15394	
83.64964	8898		-70.12328	
83.70362	8894.15		-71.13109	
83.75761	8890.298		-72.17756	
83.81159	8886.455		-73.26286	
83.86558	8882.606		-74.38693	
83.91956	8878.732		-75.54961	
83.97356	8874.815		-76.7507	
84.02754	8870.837		-77.98925	
84.08153	8866.776		-79.26456	
84.13551	8862.619		-80.57564	
84.1895	8858.361		-81.92112	
84.24348	8853.998		-83.29946	
84.29747	8849.532		-84.70896	
84.35146	8844.97		-86.14778	
84.40544	8840.318		-87.61399	
84.45943	8835.602		-89.10561	
84.51341	8830.856		-90.62061	
84.5674	8826.112		-92.15688	
84.62138	8821.389		-93.71229	
84.67537	8816.692		-95.28452	
84.72935	8812.002		-96.87128	
84.78335	8807.281		-98.47045	
84.83733	8802.495		-100.0793	
84.89132	8797.609		-101.6958	
84.9453	8792.591		-103.3179	
84.99929	8787.41		-104.9436	
85.05328	8782.061		-106.5711	
85.10726	8776.559		-108.1985	
85.16125	8770.94		-109.8243	
85.21523	8765.253		-111.4469	
85.26922	8759.541		-113.0649	
85.3232	8753.831		-114.6772	
85.37719	8748.122		-116.2828	
85.43118	8742.388		-117.8808	
85.48516	8736.583		-119.4707	
85.53915	8730.665		-121.0518	
85.59314	8724.589		-122.6243	
85.64713	8718.313		-124.1873	
85.70111	8711.793		-125.7411	
85.7551	8705.003		-127.2857	
85.80908	8697.941		-128.821	
85.86307	8690.618		-130.3468	
85.91705	8683.061		-131.8632	
85.97104	8675.301		-133.3699	
86.02502	8667.378		-134.867	
86.07901	8659.32		-136.3541	
86.133	8651.15		-137.8311	
86.18698	8642.877		-139.2976	
86.24097	8634.503		-140.7532	
86.29495	8626.028		-142.1971	
86.34894	8617.451		-143.6284	
86.40293	8608.767		-145.0464	
86.45692	8599.984		-146.4494	
86.5109	8591.113		-147.8364	
86.56489	8582.165		-149.2058	
86.61887	8573.162		-150.5563	
86.67286	8564.138		-151.8861	
86.72684	8555.133		-153.1939	
86.78083	8546.182		-154.4781	
86.83482	8537.312		-155.7373	
86.8888	8528.533		-156.9703	
86.94279	8519.84		-158.176	
86.99677	8511.207		-159.3534	
87.05076	8502.606		-160.5018	
87.10474	8494		-161.6206	
87.15873	8485.352		-162.709	
87.21272	8476.64		-163.7668	
87.26671	8467.854		-164.7933	
87.32069	8458.983		-165.7881	
87.37468	8450.03		-166.7511	
87.42867	8441.002		-167.6823	
87.48265	8431.91		-168.5816	
87.53664	8422.772		-169.4495	
87.59062	8413.609		-170.2865	
87.64461	8404.436		-171.0934	
87.69859	8395.249		-171.871	
87.75258	8386.045		-172.6203	
87.80656	8376.804		-173.3423	
87.86055	8367.495		-174.0379	
87.91454	8358.082		-174.7083	
87.96852	8348.543		-175.3544	
88.02251	8338.873		-175.9773	
88.0765	8329.072		-176.578	
88.13049	8319.157		-177.1577	
88.18447	8309.155		-177.7175	
88.23846	8299.107		-178.2584	
88.29244	8289.059		-178.7815	
88.34643	8279.048		-179.2877	
88.40041	8269.103		-179.778	
88.4544	8259.23		-180.2531	
88.50838	8249.427		-180.7137	
88.56237	8239.666		-181.1603	
88.61636	8229.912		-181.5931	
88.67034	8220.126		-182.0124	
88.72433	8210.279		-182.4179	
88.77831	8200.356		-182.8096	
88.8323	8190.352		-183.1872	
88.88629	8180.265		-183.5504	
88.94028	8170.097		-183.8988	
88.99426	8159.85		-184.2324	
89.04825	8149.54		-184.551	
89.10223	8139.198		-184.8545	
89.15622	8128.865		-185.1429	
89.21021	8118.573		-185.4162	
89.26419	8108.335		-185.6744	
89.31818	8098.157		-185.9174	
89.37216	8088.028		-186.1451	
89.42615	8077.919		-186.3575	
89.48013	8067.79		-186.5543	
89.53412	8057.603		-186.7355	
89.5881	8047.332		-186.9011	
89.64209	8036.964		-187.0511	
89.69608	8026.498		-187.1858	
89.75007	8015.956		-187.3054	
89.80405	8005.375		-187.4105	
89.85804	7994.8		-187.5016	
89.91203	7984.278		-187.5794	
89.96601	7973.846		-187.6447	
90.02	7963.515		-187.6983	
90.07398	7953.277		-187.7409	
90.12797	7943.109		-187.7736	
90.18195	7932.976		-187.7971	
90.23594	7922.841		-187.8125	
90.28992	7912.686		-187.8204	
90.34391	7902.505		-187.8219	
90.3979	7892.301		-187.8177	
90.45188	7882.091		-187.8086	
90.50587	7871.895		-187.7953	
90.55986	7861.732		-187.7785	
90.61385	7851.613		-187.7587	
90.66783	7841.543		-187.7365	
90.72182	7831.523		-187.7122	
90.7758	7821.552		-187.6865	
90.82979	7811.626		-187.6597	
90.88377	7801.741		-187.632	
90.93776	7791.875		-187.6039	
90.99174	7782.003		-187.5754	
91.04573	7772.1		-187.5469	
91.09972	7762.143		-187.5184	
91.1537	7752.115		-187.4901	
91.20769	7742.011		-187.462	
91.26167	7731.843		-187.4344	
91.31567	7721.639		-187.4072	
91.36965	7711.421		-187.3807	
91.42364	7701.211		-187.3549	
91.47762	7691.028		-187.3299	
91.53161	7680.882		-187.3055	
91.58559	7670.777		-187.2818	
91.63958	7660.708		-187.2587	
91.69357	7650.663		-187.2361	
91.74755	7640.632		-187.2139	
91.80154	7630.612		-187.1919	
91.85552	7620.601		-187.17	
91.90951	7610.607		-187.1479	
91.96349	7600.634		-187.1255	
92.01748	7590.688		-187.1026	
92.07146	7580.775		-187.0789	
92.12546	7570.896		-187.0543	
92.17944	7561.039		-187.0288	
92.23343	7551.189		-187.0022	
92.28741	7541.333		-186.9746	
92.3414	7531.448		-186.946	
92.39539	7521.513		-186.9162	
92.44937	7511.512		-186.8587	
92.50336	7501.438		-186.7968	
92.55734	7491.291		-186.7325	
92.61133	7481.075		-186.6673	
92.66531	7470.799		-186.6022	
92.7193	7460.476		-186.5379	
92.77328	7450.115		-186.4745	
92.82727	7439.719		-186.4123	
92.88126	7429.293		-186.351	
92.93524	7418.846		-186.2907	
92.98923	7408.394		-186.2311	
93.04322	7397.952		-186.1722	
93.09721	7387.523		-186.1138	
93.15119	7377.112		-186.0558	
93.20518	7366.721		-185.998	
93.25916	7356.36		-185.9403	
93.31315	7346.038		-185.8825	
93.36713	7335.763		-185.8246	
93.42112	7325.56		-185.7664	
93.47511	7315.444		-185.7079	
93.52909	7305.419		-185.6488	
93.58308	7295.483		-185.5893	
93.63706	7285.62		-185.5291	
93.69105	7275.806		-185.4682	
93.74503	7266.021		-185.4065	
93.79903	7256.249		-185.344	
93.85301	7246.477		-185.2805	
93.907	7236.686		-185.2162	
93.96098	7226.861		-185.1508	
94.01497	7216.994		-185.0844	
94.06895	7206.917		-185.0168	
94.12294	7196.846		-184.9482	
94.17693	7186.792		-184.8785	
94.23091	7176.749		-184.8076	
94.2849	7166.71		-184.7356	
94.33888	7156.671		-184.6625	
94.39287	7146.628		-184.5882	
94.44685	7136.578		-184.5128	
94.50084	7126.518		-184.4362	
94.55482	7116.448		-184.3586	
94.60882	7106.366		-184.2798	
94.6628	7096.275		-184.2	
94.71679	7086.174		-184.1192	
94.77077	7076.064		-184.0373	
94.82476	7065.945		-183.9544	
94.87875	7055.818		-183.8705	
94.93273	7045.685		-183.7857	
94.98672	7035.546		-183.7	
