T[Â°C]	350nm [counts / mm]	S.D.
20.00084	3001.65	13.98921
20.05479	2992.838	18.08033
20.10874	2992.164	15.20732
20.16269	2992.657	13.85558
20.21665	2991.541	17.35439
20.2706	2984.327	12.75311
20.32455	2983.137	13.70374
20.3785	2981.95	11.43646
20.43245	2979.771	12.77388
20.4864	2976.5	12.37508
20.54036	2975.385	16.38412
20.59431	2971.017	17.27379
20.64826	2962.738	14.59313
20.70221	2964.817	15.3616
20.75616	2964.026	21.6103
20.81011	2961.622	16.20395
20.86407	2962.024	15.24132
20.91802	2957.135	13.44667
20.97197	2955.219	15.85594
21.02592	2954.808	14.91174
21.07987	2950.747	17.8401
21.13382	2947.854	14.83458
21.18777	2947.87	14.98571
21.24173	2943.437	12.95914
21.29568	2935.844	18.64349
21.34963	2930.471	25.62726
21.40358	2937.121	18.17269
21.45753	2937.102	21.00332
21.51148	2929.833	21.84771
21.56544	2929.804	20.74744
21.61939	2930.252	20.16592
21.67334	2926.202	20.89753
21.72729	2926.926	15.99281
21.78124	2923.82	13.91016
21.8352	2918.668	8.988646
21.88915	2920.001	9.520474
21.9431	2911.973	14.07391
21.99705	2911.536	14.13801
22.051	2918.185	13.09193
22.10495	2913.987	15.76761
22.15891	2904.27	15.31074
22.21286	2905.045	13.87906
22.26681	2897.921	15.51022
22.32076	2896.978	15.18635
22.37471	2898.378	11.56919
22.42866	2895.594	14.3673
22.48261	2891.204	11.20549
22.53657	2891.21	16.21594
22.59052	2894.075	12.76662
22.64447	2885.552	17.1424
22.69842	2880.133	16.31811
22.75237	2881.366	14.2381
22.80632	2879.004	16.32737
22.86028	2876.464	16.48227
22.91423	2876.442	11.59178
22.96818	2873.397	12.9718
23.02213	2871.403	9.794881
23.07608	2871.621	11.53719
23.13003	2864.41	11.78323
23.18399	2864.496	13.11585
23.23794	2863.951	13.9183
23.29189	2861.731	15.32192
23.34584	2859.954	15.40589
23.39979	2857.899	9.115768
23.45374	2854.251	5.518765
23.5077	2848.91	9.0535
23.56165	2845.82	9.799695
23.6156	2842.927	12.88754
23.66955	2840.455	15.0617
23.7235	2841.468	18.79285
23.77745	2839.32	20.86914
23.83141	2836.344	15.52056
23.88536	2833.503	15.77488
23.93931	2835.016	16.05812
23.99326	2831.563	20.85018
24.04721	2826.571	18.59296
24.10116	2823.247	19.44223
24.15512	2822.01	13.904
24.20907	2819.355	12.59748
24.26302	2820.134	14.42103
24.31697	2817.048	14.98224
24.37092	2810.478	13.16488
24.42487	2805.727	11.29388
24.47882	2814.619	16.82718
24.53278	2813.752	16.54296
24.58673	2804.654	14.66723
24.64068	2803.446	11.14116
24.69463	2795.962	14.34775
24.74858	2797.135	17.01773
24.80253	2799.015	21.2597
24.85649	2794.137	16.78814
24.91044	2794.942	13.9193
24.96439	2790.7	12.78203
25.01834	2787.089	18.87156
25.07229	2786.595	18.75958
25.12625	2785.473	14.2493
25.1802	2782.381	14.63354
25.23415	2780.538	12.14773
25.2881	2776.216	14.59862
25.34205	2774.841	17.04026
25.396	2775.434	12.16495
25.44995	2767.391	15.38167
25.50391	2766.938	14.60305
25.55786	2765.978	15.75951
25.61181	2764.666	17.67992
25.66576	2766.184	15.65411
25.71971	2762.675	15.57033
25.77366	2755.815	16.10916
25.82762	2753.879	17.32693
25.88157	2748.118	15.4788
25.93552	2750.655	17.2098
25.98947	2747.861	13.64384
26.04342	2744.769	13.70721
26.09737	2750.751	17.35531
26.15133	2744.485	15.43355
26.20528	2737.702	12.70289
26.25923	2734.103	16.07297
26.31318	2733.934	16.46173
26.36713	2732.511	14.23347
26.42108	2730.991	17.38195
26.47503	2730.028	11.61151
26.52899	2731.218	8.221694
26.58294	2727.039	9.198058
26.63689	2723.207	9.971547
26.69084	2719.582	12.34935
26.74479	2712.261	13.7168
26.79875	2712.215	14.35521
26.8527	2709.422	6.964519
26.90665	2710.13	11.28658
26.9606	2711.566	14.91505
27.01455	2710.866	16.43376
27.0685	2709.993	15.18873
27.12246	2704.905	15.28261
27.17641	2702.047	15.66546
27.23036	2698.832	11.56609
27.28431	2692.965	10.65944
27.33826	2692.656	16.38939
27.39221	2690.86	17.26066
27.44617	2690.065	17.09073
27.50012	2684.223	19.83509
27.55407	2687.401	11.70714
27.60802	2682.575	13.54347
27.66197	2683.25	12.69281
27.71592	2677.749	14.27864
27.76987	2674.277	17.49257
27.82383	2675.961	17.94576
27.87778	2671.104	18.63802
27.93173	2671.207	19.68955
27.98568	2671.903	16.96954
28.03963	2669.967	16.91578
28.09358	2665.662	14.93462
28.14754	2662.332	13.57263
28.20149	2659.559	17.4456
28.25544	2657.191	15.64999
28.30939	2653.745	19.10479
28.36334	2653.704	23.03378
28.41729	2649.277	18.78119
28.47125	2644.235	16.57341
28.5252	2643.327	19.01479
28.57915	2639.491	19.07689
28.6331	2636.457	13.44766
28.68705	2634.772	13.28102
28.741	2633.643	15.92631
28.79496	2638.638	13.30325
28.84891	2633.291	8.188514
28.90286	2628.374	11.17232
28.95681	2632.193	15.6324
29.01076	2628.801	13.53287
29.06471	2622.085	15.75206
29.11867	2623.2	17.5113
29.17262	2618.726	12.15815
29.22657	2617.844	12.81371
29.28052	2615.245	17.36848
29.33447	2612.312	12.8129
29.38842	2611.008	19.57403
29.44238	2610.968	17.26362
29.49633	2613.959	15.72714
29.55028	2607.271	15.977
29.60423	2602.565	13.91813
29.65818	2599.647	13.22932
29.71213	2596.294	7.707509
29.76608	2594.977	9.567488
29.82004	2598.357	7.205293
29.87399	2595.912	7.723361
29.92794	2592.878	11.87464
29.98189	2588.565	13.07272
30.03584	2582.332	12.46473
30.0898	2583.713	11.9625
30.14375	2577.233	9.537468
30.1977	2578.946	11.66481
30.25165	2580.158	14.55566
30.3056	2574.962	17.44382
30.35955	2577.673	18.07152
30.41351	2573.943	16.14742
30.46746	2566.507	16.57223
30.52141	2564.407	15.59187
30.57536	2564.95	15.40398
30.62931	2561.775	11.59116
30.68326	2564.584	18.32055
30.73722	2560.301	15.00724
30.79117	2556.992	11.94427
30.84512	2553.048	12.97598
30.89907	2549.924	15.95562
30.95302	2548.012	16.68097
31.00697	2546.446	15.52397
31.06092	2545.789	17.37387
31.11488	2545.011	19.94414
31.16883	2542.076	14.74615
31.22278	2541.1	18.73079
31.27673	2538.475	14.21432
31.33068	2536.402	10.6039
31.38463	2535.654	15.66856
31.43859	2534.529	15.66523
31.49254	2528.052	15.96927
31.54649	2525.827	15.5836
31.60044	2523.365	18.67856
31.65439	2518.849	19.6326
31.70834	2520.884	14.38783
31.7623	2517.563	16.65952
31.81625	2515.633	15.97555
31.8702	2508.285	16.08582
31.92415	2508.789	12.30121
31.9781	2505.651	14.87128
32.03205	2504.248	16.13475
32.08601	2503.8	12.71342
32.13996	2499.692	10.64269
32.19391	2496.919	13.68553
32.24786	2500.72	11.02465
32.30181	2496.42	13.40212
32.35576	2495.198	15.72484
32.40971	2493.963	17.88875
32.46367	2487.847	12.85598
32.51762	2484.698	12.80725
32.57157	2487.418	14.99319
32.62552	2484.692	11.73983
32.67947	2482.846	12.93386
32.73343	2480.532	18.45962
32.78738	2479.996	13.81107
32.84133	2475.899	15.73141
32.89528	2473.791	12.64947
32.94923	2470.816	13.11945
33.00319	2467.841	9.08947
33.05714	2465.24	8.717145
33.11109	2466.362	10.56256
33.16504	2462.677	11.04439
33.21899	2459.973	9.247667
33.27294	2454.144	11.956
33.32689	2454.807	10.26045
33.38084	2451.696	13.74164
33.4348	2452.586	10.7183
33.48875	2450.169	10.34686
33.5427	2448.855	16.55259
33.59665	2444.761	17.24993
33.6506	2442.634	13.26317
33.70456	2439.677	13.07499
33.75851	2437.858	14.40242
33.81246	2436.813	12.68338
33.86641	2431.342	12.86696
33.92036	2432.699	15.45586
33.97431	2433.778	14.018
34.02826	2429.925	11.49003
34.08222	2429.205	9.907664
34.13617	2425.885	15.12553
34.19012	2416.233	12.83696
34.24407	2417.25	14.14257
34.29802	2419.558	17.38471
34.35197	2417.239	15.12863
34.40593	2416.472	16.00989
34.45988	2413.175	16.77411
34.51383	2413.964	16.16271
34.56778	2409.616	16.12366
34.62173	2404.326	15.70451
34.67569	2401.973	14.33905
34.72964	2400.378	12.3969
34.78359	2400.45	10.05133
34.83754	2398.572	9.684752
34.89149	2396.493	15.436
34.94544	2393.737	15.89973
34.99939	2391.623	11.73628
35.05334	2386.423	10.80941
35.1073	2387.616	13.10721
35.16125	2385.741	11.75746
35.2152	2380.532	15.59775
35.26915	2380.713	12.6708
35.3231	2380.586	14.50839
35.37706	2375.425	14.80435
35.43101	2377.317	9.379333
35.48496	2373.076	9.375183
35.53891	2371.074	12.74051
35.59286	2365.873	14.88459
35.64681	2364.477	14.88244
35.70076	2362.435	17.568
35.75472	2363.294	15.98729
35.80867	2362.257	13.27833
35.86262	2359.539	12.81982
35.91657	2354.218	13.48108
35.97052	2355.882	13.81394
36.02448	2349.84	13.10652
36.07843	2352.253	16.89951
36.13238	2352.781	19.0319
36.18633	2347.314	16.69641
36.24028	2346.74	15.83615
36.29424	2344.246	10.67439
36.34819	2340.532	14.45023
36.40214	2339.052	9.89187
36.45609	2335.527	15.14058
36.51004	2333.462	7.447
36.56399	2333.789	8.092408
36.61794	2327.104	10.41479
36.67189	2327.378	9.186997
36.72585	2324.083	9.15809
36.7798	2324.579	12.1755
36.83375	2323.222	10.76802
36.8877	2319.292	15.47564
36.94165	2317.473	9.18132
36.99561	2315.595	11.17289
37.04956	2311.813	10.43379
37.10351	2310.846	11.76522
37.15746	2313.719	11.53163
37.21141	2309.966	10.08067
37.26536	2305.952	12.06382
37.31931	2302.182	11.4376
37.37326	2302.981	15.79265
37.42722	2299.755	15.63415
37.48117	2298.425	12.86793
37.53512	2295.074	13.47153
37.58907	2289.924	12.35762
37.64302	2291.45	14.17978
37.69698	2288.417	13.73929
37.75093	2288.418	14.46687
37.80488	2288.053	7.307885
37.85883	2284.302	11.77021
37.91278	2284.881	14.00554
37.96674	2283.083	13.39021
38.02069	2272	13.064
38.07464	2272.542	13.98521
38.12859	2275.507	10.05335
38.18254	2272.289	14.24914
38.23649	2272.571	15.65383
38.29044	2265.984	14.61677
38.34439	2262.107	13.07897
38.39835	2261.463	14.13103
38.4523	2260.683	12.97159
38.50625	2261.141	11.74124
38.5602	2260.316	10.0061
38.61415	2257.635	8.185431
38.66811	2255.862	10.19579
38.72206	2252.503	11.56378
38.77601	2248.39	11.30846
38.82996	2246.536	9.994998
38.88391	2242.666	9.461617
38.93786	2240.681	13.4844
38.99181	2240.693	11.44461
39.04576	2239.988	11.3826
39.09972	2237.838	11.24932
39.15367	2233.57	11.24272
39.20762	2230.565	11.4848
39.26157	2230.485	11.2712
39.31553	2227.548	13.45996
39.36948	2229.213	13.70685
39.42343	2223.43	11.53946
39.47738	2219.893	11.02959
39.53133	2221.768	9.76689
39.58528	2222.022	9.197306
39.63924	2217.861	11.34239
39.69319	2216.27	10.04924
39.74714	2210.079	9.292094
39.80109	2208.946	5.831108
39.85504	2208.053	8.170288
39.90899	2206.528	11.4718
39.96294	2203.734	11.52556
40.0169	2201.306	11.2397
40.07085	2199.324	13.77253
40.1248	2199.077	14.92944
40.17875	2198.195	12.81187
40.2327	2193.464	11.14358
40.28666	2190.294	14.97109
40.34061	2189.948	10.04015
40.39456	2187.119	12.71564
40.44851	2188.173	16.23919
40.50246	2184.217	15.52831
40.55641	2182.619	11.46283
40.61036	2178.75	10.12216
40.66431	2179.202	11.93566
40.71827	2175.888	13.73712
40.77222	2168.905	10.40065
40.82617	2170.609	13.12087
40.88012	2168.361	11.39226
40.93407	2167	13.92336
40.98803	2168.918	11.42114
41.04198	2164.786	8.879008
41.09593	2167.48	13.42737
41.14988	2162.665	13.76127
41.20383	2159.962	18.35488
41.25779	2157.448	14.4702
41.31174	2156.144	8.546879
41.36569	2152.746	10.07171
41.41964	2152.39	17.28596
41.47359	2147.462	17.27758
41.52754	2146.859	11.49851
41.58149	2144.344	14.12089
41.63544	2143.711	12.77801
41.6894	2139.679	11.24095
41.74335	2137.182	13.12189
41.7973	2136.388	12.12657
41.85125	2135.718	11.00847
41.9052	2133.93	11.29437
41.95916	2134.457	10.81091
42.01311	2130.414	11.95982
42.06706	2130.71	9.471768
42.12101	2127.729	11.21177
42.17496	2123.59	13.52691
42.22891	2123.821	10.42775
42.28286	2122.547	11.1695
42.33681	2118.401	11.53377
42.39077	2117.459	7.393091
42.44472	2115.723	12.08882
42.49867	2112.047	12.38761
42.55262	2107.962	9.79605
42.60658	2103.344	14.63957
42.66053	2108.594	15.2858
42.71448	2108.832	12.76248
42.76843	2104.938	13.69289
42.82238	2102.647	14.16695
42.87633	2100.221	8.875986
42.93029	2097.478	8.597484
42.98424	2097.684	8.79985
43.03819	2090.154	8.4994
43.09214	2089.692	4.983361
43.14609	2088.185	5.812306
43.20004	2085.945	8.629498
43.25399	2084.08	11.50168
43.30795	2082.824	7.593385
43.3619	2080.819	10.42266
43.41585	2080.68	11.70115
43.4698	2076.294	14.61403
43.52375	2075.066	9.19644
43.57771	2072.942	13.30046
43.63166	2072.503	11.08816
43.68561	2068.947	11.93093
43.73956	2067.741	11.36277
43.79351	2062.958	12.80749
43.84746	2061.76	12.62178
43.90141	2057.94	12.35864
43.95536	2059.753	10.49767
44.00932	2058.063	9.442924
44.06327	2054.574	9.685582
44.11722	2053.938	10.74423
44.17117	2051.924	11.39934
44.22512	2052.216	12.73962
44.27908	2052.258	13.52999
44.33303	2048.525	14.97288
44.38698	2046.492	11.73111
44.44093	2042.823	9.92404
44.49488	2042.491	9.026366
44.54883	2038.334	10.30989
44.60279	2032.705	9.084654
44.65674	2032.203	12.1627
44.71069	2029.536	10.26138
44.76464	2029.495	12.38017
44.81859	2028.87	11.1151
44.87254	2025.712	14.22279
44.92649	2025.095	13.32838
44.98045	2023.287	14.15393
45.0344	2020.26	12.36544
45.08835	2016.698	12.74492
45.1423	2012.441	9.1448
45.19625	2012.704	11.01141
45.25021	2013.646	9.978551
45.30416	2011.24	9.655042
45.35811	2011.14	9.997528
45.41206	2008.678	9.155541
45.46601	2004.563	7.064775
45.51996	2002.468	11.72249
45.57391	2004.725	10.86519
45.62786	2003.142	11.78613
45.68182	2001.428	9.698874
45.73577	1997.242	6.608653
45.78972	1992.952	9.034825
45.84367	1992.313	11.02221
45.89762	1989.749	12.82383
45.95158	1989.359	15.53282
46.00553	1989.639	19.94585
46.05948	1985.774	13.9811
46.11343	1983.999	11.02103
46.16738	1982.088	10.00037
46.22133	1978.578	9.085055
46.27529	1976.582	8.709599
46.32924	1970.013	10.1031
46.38319	1976.342	7.055682
46.43714	1973.096	12.11034
46.49109	1970.462	8.514326
46.54504	1965.597	10.67586
46.599	1964.579	13.0325
46.65295	1962.191	14.65012
46.7069	1964.113	12.69385
46.76085	1959.611	13.67551
46.8148	1959.257	9.178498
46.86876	1957.243	10.61643
46.92271	1952.839	10.89037
46.97666	1951.837	13.70381
47.03061	1947.63	9.966569
47.08456	1944.84	13.01697
47.13851	1948.142	12.98911
47.19246	1943.627	13.79087
47.24641	1943.73	7.357597
47.30037	1940.302	11.22656
47.35432	1936.373	8.893269
47.40827	1933.928	14.01055
47.46222	1933.76	12.26469
47.51617	1931.336	14.70648
47.57013	1931.785	10.73776
47.62408	1928.37	11.22658
47.67803	1927.954	10.778
47.73198	1921.69	12.50572
47.78593	1926.468	12.25631
47.83988	1921.258	13.77543
47.89384	1919.149	11.77187
47.94779	1916.084	13.02108
48.00174	1915.846	10.04509
48.05569	1913.939	11.37013
48.10964	1913.932	9.635142
48.16359	1909.708	14.75208
48.21754	1910.338	13.86495
48.2715	1904.998	12.20502
48.32545	1905.353	9.176938
48.3794	1899.323	12.11841
48.43335	1900.967	14.55676
48.4873	1900.22	13.74713
48.54126	1900.584	11.00388
48.59521	1897.245	11.09541
48.64916	1898.256	7.662017
48.70311	1891.688	9.309336
48.75706	1891.604	6.808088
48.81101	1887.729	9.765309
48.86496	1886.44	7.976906
48.91891	1883.637	9.304783
48.97287	1884.96	10.52168
49.02682	1878.743	11.64835
49.08077	1877.849	12.48574
49.13472	1875.298	12.13823
49.18867	1875.263	6.721425
49.24263	1873.575	9.401097
49.29658	1871.974	10.69997
49.35053	1868.822	9.501206
49.40448	1866.102	9.014144
49.45843	1865.748	9.44185
49.51238	1864.192	11.36149
49.56634	1863.655	9.465117
49.62029	1862.084	11.08764
49.67424	1858.323	6.034295
49.72819	1855.667	5.534311
49.78214	1854.316	7.942842
49.83609	1850.925	13.30219
49.89005	1849.783	5.944361
49.944	1847.483	9.701605
49.99795	1846.125	8.398463
50.0519	1847.1	10.86497
50.10585	1843.922	9.263115
50.15981	1842.284	11.69422
50.21376	1840.662	10.02794
50.26771	1836.421	11.03262
50.32166	1835.01	11.74078
50.37561	1830.134	15.1739
50.42956	1831.197	10.59485
50.48351	1830.574	10.97334
50.53746	1827.589	9.584823
50.59142	1823.755	13.46988
50.64537	1825.579	10.62287
50.69932	1819.438	10.75188
50.75327	1822.683	6.274719
50.80722	1814.816	6.928604
50.86118	1816.451	6.772507
50.91513	1815.53	9.294116
50.96908	1811.917	7.925849
51.02303	1811.066	12.21284
51.07698	1811.102	8.8275
51.13093	1808.644	12.42439
51.18488	1808.794	8.710359
51.23884	1803.796	8.708985
51.29279	1801.542	8.907389
51.34674	1800.131	11.22143
51.40069	1796.06	8.603863
51.45464	1794.523	9.387177
51.50859	1794.528	6.646178
51.56255	1791.149	10.89245
51.6165	1794.726	9.917462
51.67045	1790.601	13.44512
51.7244	1785.269	10.98853
51.77835	1784.537	9.696156
51.83231	1781.339	8.786303
51.88626	1779.995	13.61652
51.94021	1781.304	12.30328
51.99416	1777.311	12.79714
52.04811	1779.386	4.755105
52.10206	1776.719	7.404675
52.15601	1776.184	10.36163
52.20996	1768.83	11.53468
52.26392	1769.356	9.766238
52.31787	1767.934	11.32022
52.37182	1766.431	7.634714
52.42577	1762.574	11.64073
52.47972	1763.863	6.749242
52.53368	1761.093	7.787696
52.58763	1760.417	10.28159
52.64158	1757.557	8.638183
52.69553	1756.394	7.581315
52.74948	1751.543	7.874411
52.80343	1750.732	6.80896
52.85739	1748.173	9.692519
52.91134	1741.571	5.190314
52.96529	1743.908	6.409879
53.01924	1744.021	7.922509
53.07319	1741.004	8.855665
53.12714	1741.797	10.0711
53.1811	1741.389	7.78415
53.23505	1737.264	5.261305
53.289	1735.591	4.955038
53.34295	1731.597	7.582757
53.3969	1732.196	7.865629
53.45086	1728.671	8.309449
53.50481	1725.572	8.729712
53.55876	1724.123	11.04174
53.61271	1720.937	7.244465
53.66666	1718.57	10.2596
53.72061	1719.763	8.060735
53.77456	1714.741	10.84994
53.82851	1716.347	10.34921
53.88247	1711.212	8.518565
53.93642	1714.56	6.621406
53.99037	1711.55	7.949728
54.04432	1708.185	8.681786
54.09827	1705.838	7.340405
54.15223	1707.192	9.60099
54.20618	1703.308	8.40212
54.26013	1702.593	9.214227
54.31408	1698.215	10.17108
54.36803	1695.086	9.109207
54.42198	1696.577	9.937091
54.47593	1693.336	6.381017
54.52989	1691.335	8.685369
54.58384	1691.474	8.629254
54.63779	1688.593	10.96781
54.69174	1690.61	6.764174
54.74569	1685.051	8.020481
54.79964	1684.093	7.676673
54.8536	1681.202	8.729623
54.90755	1683.691	8.682571
54.9615	1678.166	10.20424
55.01545	1674.327	7.830948
55.0694	1670.886	8.573559
55.12336	1676.596	6.206613
55.17731	1669.204	8.565709
55.23126	1668.143	10.36126
55.28521	1665.026	12.4203
55.33916	1665.323	6.822355
55.39311	1664.201	11.91793
55.44706	1663.768	9.459771
55.50101	1660.936	10.35554
55.55497	1660.558	8.149892
55.60892	1654.423	9.256695
55.66287	1655.037	6.766459
55.71682	1649.956	7.790848
55.77077	1653.496	5.577421
55.82473	1648.388	5.945748
55.87868	1643.95	6.709236
55.93263	1643.578	7.938373
55.98658	1647.172	6.021362
56.04053	1641.652	8.167427
56.09448	1639.541	10.44429
56.14843	1637.726	10.22163
56.20239	1641.921	6.333709
56.25634	1636.573	8.175096
56.31029	1633.341	6.133218
56.36424	1630.587	8.442989
56.41819	1627.61	8.125209
56.47215	1625.492	6.628977
56.5261	1624.411	5.479332
56.58005	1624.871	3.501774
56.634	1621.921	6.265349
56.68795	1617.99	10.4424
56.74191	1615.685	8.730227
56.79586	1619.286	5.43683
56.84981	1617.574	6.525588
56.90376	1611.096	8.008666
56.95771	1605.694	7.82547
57.01166	1609.199	10.27489
57.06561	1604.42	10.50854
57.11956	1607.286	8.240213
57.17352	1602.37	7.545679
57.22747	1602.738	6.019814
57.28142	1599.629	9.851637
57.33537	1598.146	9.072345
57.38932	1595.852	13.13171
57.44328	1594.791	9.694712
57.49723	1591.667	10.83547
57.55118	1591.113	6.778399
57.60513	1586.446	9.553626
57.65908	1590.549	5.144103
57.71303	1586.484	7.041962
57.76698	1586.118	6.759403
57.82094	1582.41	10.08571
57.87489	1581.333	5.999411
57.92884	1576.124	12.34339
57.98279	1577.533	10.14744
58.03674	1574.358	10.53363
58.09069	1574.307	5.37427
58.14465	1572.954	9.162201
58.1986	1569.224	9.739285
58.25255	1567.293	8.352631
58.3065	1566.992	9.138747
58.36045	1564.472	10.07375
58.41441	1565.785	7.947906
58.46836	1560.755	7.798992
58.52231	1559.151	5.241462
58.57626	1554.917	6.608465
58.63021	1555.066	8.273859
58.68416	1553.112	8.416066
58.73811	1551.386	4.425608
58.79206	1548.417	7.583152
58.84602	1547.414	6.524594
58.89997	1543.429	7.064973
58.95392	1544.037	8.934188
59.00787	1543.521	8.451904
59.06182	1543.272	5.408389
59.11578	1540.474	6.149073
59.16973	1538.89	6.145487
59.22368	1533.031	9.871424
59.27763	1534.79	5.421185
59.33158	1531.011	6.980638
59.38553	1531.724	8.748946
59.43948	1528.079	7.4124
59.49344	1526.658	7.798359
59.54739	1523.954	9.988629
59.60134	1521.542	10.77894
59.65529	1520.364	7.303833
59.70924	1516.917	6.491262
59.7632	1519.462	9.721695
59.81715	1515.919	9.219717
59.8711	1514.061	6.655757
59.92505	1510.71	9.516055
59.979	1513.233	6.75968
60.03296	1511.824	8.155669
60.08691	1510.135	6.438799
60.14086	1508.611	6.994502
60.19481	1506.142	6.022754
60.24876	1503.545	7.510446
60.30271	1502.925	5.463505
60.35666	1499.694	8.780091
60.41061	1501.732	7.442402
60.46457	1496.088	8.686776
60.51852	1493.633	5.729216
60.57247	1490.338	6.640928
60.62642	1489.546	10.65369
60.68037	1489.134	13.40654
60.73433	1487.711	4.124807
60.78828	1484.192	4.806031
60.84223	1485.142	4.425319
60.89618	1480.346	8.215914
60.95013	1480.791	5.813044
61.00408	1475.529	6.767982
61.05803	1477.896	7.154925
61.11198	1475.941	7.1478
61.16594	1476.912	7.55229
61.21989	1473.968	8.69153
61.27384	1475.001	3.19134
61.32779	1467.856	7.042521
61.38174	1470.141	6.755926
61.4357	1463.978	5.468955
61.48965	1465.294	6.10283
61.5436	1461.45	9.065063
61.59755	1460.947	4.172698
61.6515	1459.457	5.726066
61.70546	1458.736	6.13063
61.75941	1455.262	6.995442
61.81336	1457.479	7.478194
61.86731	1455.865	10.58474
61.92126	1455.738	6.13968
61.97521	1451.289	5.386353
62.02916	1451.672	8.24231
62.08311	1447.451	7.626453
62.13707	1443.162	5.951208
62.19102	1440.042	6.177597
62.24497	1443.258	5.293416
62.29892	1439.471	8.260052
62.35287	1440.93	5.863641
62.40683	1435.605	9.025192
62.46078	1433.77	8.568292
62.51473	1432.924	9.320236
62.56868	1430.282	6.182786
62.62263	1429.026	4.556962
62.67658	1428.458	7.045351
62.73053	1428.062	4.112673
62.78448	1425.918	5.429474
62.83844	1422.948	4.948605
62.89239	1419.859	7.725284
62.94634	1424.027	6.577176
63.00029	1418.647	7.591646
63.05424	1419.856	6.62798
63.1082	1414.014	7.103782
63.16215	1414.972	6.168157
63.2161	1411.505	6.42824
63.27005	1413.013	5.516931
63.324	1410.32	9.083433
63.37796	1408.599	8.383851
63.43191	1404.942	8.805237
63.48586	1405.212	4.573551
63.53981	1400.885	8.073475
63.59376	1401.122	7.227368
63.64771	1401.086	6.711128
63.70166	1400.928	6.906237
63.75562	1400.132	6.032996
63.80957	1398.354	5.024471
63.86352	1396.999	7.74159
63.91747	1397.551	4.895474
63.97142	1392.194	7.25408
64.02538	1394.542	6.073227
64.07932	1389.267	9.077912
64.13328	1391.942	3.614093
64.18723	1388.383	8.944554
64.24118	1390.754	5.706834
64.29514	1386.915	6.292247
64.34908	1383.372	4.823035
64.40304	1381.857	8.796957
64.45699	1383.487	5.461005
64.51094	1380.578	7.69119
64.56489	1383.695	8.175619
64.61884	1378.623	8.595438
64.67279	1380.953	3.35632
64.72675	1378.82	7.820259
64.7807	1375.757	5.240464
64.83465	1375.055	6.865348
64.8886	1376.376	7.28693
64.94255	1373.154	7.120623
64.99651	1375.566	4.295598
65.05045	1369.888	7.534995
65.10441	1369.087	5.558161
65.15836	1365.543	9.15433
65.21231	1366.123	8.723263
65.26626	1365.604	9.136533
65.32021	1366.797	7.711359
65.37417	1365.082	8.215386
65.42812	1365.413	5.196272
65.48207	1364.027	7.351423
65.53602	1366.009	5.769453
65.58997	1363.807	7.818045
65.64392	1365.91	9.208812
65.69788	1364.308	7.892929
65.75182	1362.167	7.350465
65.80578	1362.38	7.338597
65.85973	1359.569	8.975423
65.91368	1358.675	11.42547
65.96764	1358.099	12.51274
66.02158	1359.219	8.182762
66.07554	1358.321	13.17986
66.12949	1358.947	11.00786
66.18344	1355.272	12.37219
66.23739	1359.777	7.899448
66.29134	1358.354	12.95952
66.34529	1360.884	9.290562
66.39925	1357.756	10.46187
66.4532	1359.775	5.641294
66.50715	1356.021	4.675235
66.5611	1360.298	7.387374
66.61505	1357.934	9.004744
66.66901	1363.705	5.315681
66.72295	1361.442	9.245493
66.77691	1365.101	7.95823
66.83086	1361.827	11.35096
66.88481	1363.191	8.674997
66.93877	1362.412	11.57804
66.99271	1366.866	9.675146
67.04667	1363.129	11.56543
67.10062	1365.332	9.570032
67.15457	1366.114	11.56803
67.20852	1370.528	10.23548
67.26247	1368.207	11.90592
67.31642	1374.234	11.1848
67.37038	1372.945	13.32059
67.42432	1374.152	9.959689
67.47828	1374.657	10.41763
67.53223	1379.582	11.14354
67.58618	1383.026	11.53413
67.64014	1382.977	11.7892
67.69408	1384.15	15.04909
67.74804	1390.498	12.70846
67.80199	1390.856	17.16784
67.85594	1393.901	12.04394
67.90989	1394.236	14.22135
67.96384	1401.406	8.475406
68.01779	1399.735	13.77281
68.07175	1407.158	14.0226
68.1257	1409.463	13.56537
68.17965	1415.51	9.133091
68.2336	1416.092	12.81264
68.28755	1418.237	9.342153
68.34151	1423.278	13.91483
68.39545	1431.707	12.07552
68.44941	1433.433	11.953
68.50336	1439.701	14.82547
68.55731	1442.358	18.87403
68.61127	1447.777	13.8013
68.66521	1451.235	17.74229
68.71917	1455.158	17.68503
68.77312	1461.441	18.79479
68.82707	1467.311	17.55921
68.88102	1473.227	19.29714
68.93497	1480.898	18.79416
68.98892	1487	20.00288
69.04288	1494.447	21.2255
69.09682	1499.777	21.43352
69.15078	1505.954	20.97696
69.20473	1516.4	20.9235
69.25868	1522.16	22.83193
69.31264	1530.013	24.55997
69.36658	1534.759	28.78779
69.42054	1543.625	23.60122
69.47449	1549.505	26.45662
69.52844	1560.236	27.76475
69.58239	1567.048	29.02178
69.63634	1575.977	27.47689
69.6903	1581.947	31.11511
69.74425	1596.743	25.71578
69.7982	1601.913	30.06081
69.85215	1613.541	26.61217
69.90611	1619.934	30.00814
69.96005	1637.391	29.80572
70.01401	1643.765	32.45221
70.06796	1658.844	29.26313
70.12191	1667.341	30.77586
70.17586	1680.263	29.16365
70.22981	1687.614	34.42542
70.28377	1704.242	30.67049
70.33772	1712.654	32.46316
70.39167	1732.341	33.32704
70.44562	1737.384	39.23104
70.49957	1754.91	36.91917
70.55352	1762.728	40.07677
70.60748	1784.833	35.70997
70.66142	1795.54	37.16671
70.71538	1812.157	33.9242
70.76933	1824.617	34.09964
70.82328	1836.052	32.22318
70.87724	1849.213	37.11693
70.93118	1872.642	37.33812
70.98514	1881.446	37.82983
71.03909	1905.59	37.83254
71.09304	1912.909	43.33481
71.14699	1934.103	39.3021
71.20094	1946.401	43.11379
71.25489	1966.77	37.66972
71.30885	1979.683	42.49895
71.3628	1994.96	43.89822
71.41675	2008.896	47.29214
71.4707	2030.259	40.01266
71.52465	2045.687	44.54746
71.57861	2066.941	41.85233
71.63255	2081.938	45.61196
71.68651	2109.448	39.54507
71.74046	2120.794	44.87933
71.79441	2142.847	40.10738
71.84836	2157.917	43.59049
71.90231	2184.111	47.34894
71.95627	2200.027	49.3966
72.01022	2217.791	46.43073
72.06417	2235.182	50.26884
72.11812	2255.207	52.17134
72.17207	2278.372	50.54213
72.22602	2295.741	53.01356
72.27998	2318.934	48.39723
72.33392	2335.36	50.22033
72.38788	2357.775	51.9139
72.44183	2371.158	54.3349
72.49578	2401.582	49.66284
72.54974	2411.413	51.04438
72.60368	2437.812	45.42874
72.65764	2451.95	50.87425
72.71159	2477.103	46.60822
72.76554	2489.779	51.01291
72.81949	2511.982	44.41383
72.87344	2524.245	47.37947
72.92739	2550.192	39.35769
72.98135	2555.66	46.68872
73.0353	2574.004	42.55239
73.08925	2583.637	46.38248
73.1432	2606.371	40.32666
73.19715	2615.284	44.75755
73.25111	2633.542	38.77795
73.30505	2643.09	42.92602
73.35901	2657.323	31.25313
73.41296	2666.131	33.96192
73.46691	2679.956	33.64422
73.52086	2684.816	38.17775
73.57481	2701.77	31.7326
73.62877	2702.629	33.66144
73.68272	2716.958	30.83035
73.73667	2720.435	34.72494
73.79062	2736.872	26.54406
73.84457	2741.218	34.53771
73.89852	2753.57	31.11671
73.95248	2753.427	33.31724
74.00642	2767.622	30.07577
74.06038	2770.149	36.31186
74.11433	2785.123	26.01279
74.16828	2781.153	27.33208
74.22224	2791.772	24.68809
74.27618	2789.382	27.96618
74.33014	2800.277	18.74387
74.38409	2801.967	24.61872
74.43804	2814.826	22.63736
74.49199	2811.258	25.13789
74.54594	2817.763	24.30112
74.59989	2816.329	27.60224
74.65385	2827.785	27.15574
74.7078	2828.505	30.26777
74.76175	2832.106	29.71247
74.8157	2836.845	23.9376
74.86965	2836.823	25.33031
74.92361	2841.556	28.63854
74.97755	2843.709	30.84696
75.03151	2851.384	23.07628
75.08546	2852.438	28.22777
75.13941	2864.939	18.36247
75.19336	2856.243	23.25528
75.24731	2869.65	21.33302
75.30127	2865.243	29.33788
75.35522	2874.305	21.28132
75.40917	2873.12	29.61369
75.46312	2880	21.05283
75.51707	2883.331	26.19195
75.57102	2884.451	21.9545
75.62498	2882.301	29.79854
75.67892	2891.69	20.00084
75.73288	2891.821	26.52727
75.78683	2897.591	21.95314
75.84078	2893.581	28.17948
75.89474	2901.777	16.76093
75.94868	2896.758	22.81826
76.00264	2913.017	16.65587
76.05659	2906.747	21.04014
76.11054	2912.216	18.858
76.16449	2909.582	25.69387
76.21844	2913.153	18.18085
76.27239	2913.936	24.92622
76.32635	2919.029	17.56909
76.3803	2918.558	20.74145
76.43425	2931.549	13.31579
76.4882	2924.286	19.4281
76.54215	2930.396	10.81521
76.59611	2926.288	16.29322
76.65005	2929.866	16.05205
76.70401	2932.821	21.54463
76.75796	2932.487	30.24545
76.81191	2932.514	17.81221
76.86586	2928.431	18.88381
76.91982	2937.649	20.96534
76.97377	2938.145	26.27231
77.02772	2946.865	19.61235
77.08167	2948.981	24.85178
77.13562	2943.408	16.09666
77.18958	2943.431	18.84147
77.24352	2953.302	16.7209
77.29748	2949.231	24.9609
77.35143	2954.775	15.94192
77.40538	2947.146	21.46901
77.45934	2954.59	16.94627
77.51328	2950.955	20.05823
77.56724	2954.654	17.29377
77.62119	2952.366	19.02022
77.67514	2962.073	12.29267
77.72909	2956.982	12.325
77.78304	2956.371	13.70193
77.83699	2953.668	18.74667
77.89095	2964.562	22.66074
77.94489	2957.568	27.43635
77.99885	2959.234	16.42378
78.0528	2955.691	22.10987
78.10675	2965.327	15.7183
78.16071	2957.111	21.87355
78.21465	2958.841	20.9577
78.26861	2954.001	23.83764
78.32256	2957.393	25.14542
78.37651	2959.517	27.66675
78.43046	2959.084	26.16056
78.48441	2958.84	25.35555
78.53837	2955.329	31.89339
78.59232	2960.53	32.56712
78.64627	2958.598	38.45757
78.70022	2962.617	32.61757
78.75417	2957.423	38.43464
78.80812	2962.431	34.94997
78.86208	2957.864	40.74367
78.91602	2965.03	29.6824
78.96998	2959.436	34.32776
79.02393	2965.977	33.92245
79.07788	2960.664	35.60132
79.13184	2963.011	29.50112
79.18578	2962.016	31.39416
79.23974	2973.164	23.46259
79.29369	2966.918	30.49374
79.34764	2973.838	29.73442
79.40159	2971.118	36.22989
79.45554	2980.334	23.98895
79.50949	2973.185	31.48818
79.56345	2979.309	30.77209
79.61739	2974.392	38.54927
79.67135	2978.885	33.09984
79.7253	2978.528	38.42474
79.77925	2981.352	31.55136
79.83321	2976.167	33.09658
79.88715	2982.416	30.58597
79.94111	2984.53	31.25379
79.99506	2988.587	23.86453
80.04901	2983.998	31.83519
80.10296	2990.708	26.79549
80.15691	2990.015	29.98729
80.21087	2993.502	25.83681
80.26482	2990.276	29.78692
80.31877	2992.191	24.75309
80.37272	2993.27	30.50936
80.42667	2996.419	34.28472
80.48062	2996.864	32.07259
80.53458	2993.281	34.83839
80.58852	2996.19	29.06623
80.64248	2993.923	33.27573
80.69643	2999.687	28.47441
80.75038	2998.35	33.79084
80.80434	3005.817	28.53076
80.85828	2998.478	35.83993
80.91224	3008.913	31.13869
80.96619	3000.524	36.5537
81.02014	3010.873	27.85326
81.07409	3003.468	31.36262
81.12804	3012.475	27.0436
81.18199	3004.4	35.5948
81.23595	3016.481	29.8303
81.2899	3012.169	36.1711
81.34385	3015.26	29.72153
81.3978	3014.189	36.62435
81.45175	3024.34	24.12805
81.50571	3020.155	33.17527
81.55965	3019.693	17.59895
81.61361	3021.614	25.78015
81.66756	3027.171	21.89476
81.72151	3026.476	25.20835
81.77546	3030.089	25.01743
81.82941	3026.015	28.29237
81.88337	3034.083	21.89877
81.93732	3024.334	22.05273
81.99127	3039.845	17.21837
82.04522	3031.849	24.93458
82.09917	3037.446	21.8803
82.15312	3033.312	24.31487
82.20708	3041.729	14.45214
82.26102	3037.507	20.21137
82.31498	3046.082	20.26786
82.36893	3043.507	21.24333
82.42288	3047.773	17.66801
82.47684	3044.783	25.90293
82.53078	3049.086	27.79538
82.58474	3051.671	26.59045
82.63869	3052.886	27.26477
82.69264	3052.417	24.8315
82.74659	3052.482	22.10747
82.80054	3054.475	22.30259
82.85449	3051.565	25.77481
82.90845	3057.61	22.95713
82.9624	3052.635	28.14343
83.01635	3060.752	16.97687
83.0703	3056.808	23.35855
83.12425	3065.225	19.53526
83.17821	3062.409	26.87961
83.23215	3068.924	21.73783
83.28611	3064.931	26.38218
83.34006	3068.089	19.31128
83.39401	3064.553	27.29519
83.44796	3076.726	20.49909
83.50191	3069.302	23.36963
83.55587	3076.356	18.72605
83.60982	3073.578	25.04491
83.66377	3077.13	19.12339
83.71772	3075.094	28.5618
83.77168	3080.961	21.63586
83.82562	3080.485	26.86325
83.87958	3085.99	11.51937
83.93353	3078.255	23.91192
83.98748	3083.365	13.55165
84.04143	3080.906	20.06515
84.09538	3085.35	18.89644
84.14934	3080.469	23.58711
84.20329	3087.756	14.64351
84.25724	3080.374	22.09535
84.31119	3087.279	11.23502
84.36514	3081.431	19.66206
84.41909	3086.06	17.02927
84.47305	3083.021	17.11028
84.52699	3088.729	11.36033
84.58095	3084.696	15.59457
84.6349	3088.616	8.679805
84.68885	3082.292	15.83809
84.74281	3090.247	13.57649
84.79675	3081.897	19.98349
84.85071	3083.94	11.35128
84.90466	3079.305	13.51268
84.95861	3075.988	17.68932
85.01256	3078.385	19.82207
85.06651	3076.43	19.10903
85.12046	3079.898	15.82914
85.17442	3076.266	19.13436
85.22837	3075.947	16.36263
85.28232	3071.196	17.2348
85.33627	3074.879	18.7355
85.39022	3070.802	25.33371
85.44418	3077.248	17.25136
85.49812	3068.407	16.89955
85.55208	3076.643	11.9349
85.60603	3068.57	13.88321
85.65998	3070.249	13.91337
85.71394	3066.369	14.7518
85.76788	3065.661	13.35136
85.82184	3060.046	17.29493
85.87579	3062.922	14.77095
85.92974	3058.028	19.88518
85.98369	3060.397	17.9695
86.03764	3050.942	20.83475
86.09159	3053.556	16.12309
86.14555	3047.312	19.72945
86.19949	3053.525	13.30214
86.25345	3045.624	17.26953
86.3074	3049.43	12.50595
86.36135	3044.035	13.45294
86.41531	3042.6	18.23303
86.46925	3038.597	15.63052
86.52321	3036.582	17.1481
86.57716	3032.765	17.4739
86.63111	3037.016	11.20267
86.68506	3032.185	12.40416
86.73901	3032.855	10.19083
86.79296	3028.309	13.69308
86.84692	3031.192	15.56491
86.90087	3021.225	14.81751
86.95482	3025.183	20.92099
87.00877	3012.432	21.80773
87.06272	3016.648	17.22434
87.11668	3007.663	18.23611
87.17062	3012.262	15.45403
87.22458	3006.798	19.21394
87.27853	3006.943	22.94562
87.33248	2997.45	20.62541
87.38644	3004.077	19.2708
87.44038	2995.171	18.56802
87.49434	2995.438	14.99957
87.54829	2989.115	15.27261
87.60224	2993.987	20.82543
87.65619	2984.795	16.91953
87.71014	2991.549	22.23134
87.76409	2979.345	17.08795
87.81805	2977.894	19.22196
87.87199	2972.085	18.61336
87.92595	2972.063	20.59598
87.9799	2969.597	19.5292
88.03385	2964.876	18.70645
88.08781	2960.453	15.89028
88.14175	2959.115	14.29949
88.19571	2955.476	18.06174
88.24966	2949.097	18.72062
88.30361	2951.546	14.99579
88.35756	2943.43	13.79227
88.41151	2943.772	14.32524
88.46547	2934.999	14.25464
88.51942	2937.719	15.16095
88.57337	2929.503	17.17207
88.62732	2934.72	16.68824
88.68127	2932.274	20.58959
88.73522	2927.258	15.1944
88.78918	2919.046	17.40038
88.84312	2922.844	19.11843
88.89708	2914.114	22.86718
88.95103	2917.549	20.12428
89.00498	2908.069	18.71548
89.05894	2912.842	15.88735
89.11288	2902.47	16.62741
89.16684	2902.67	19.44705
89.22079	2895.113	18.69002
89.27474	2900.114	18.10162
89.32869	2889.698	15.12499
89.38264	2889.153	21.65691
89.43659	2884.146	22.98293
89.49055	2887.7	22.50841
89.54449	2875.963	21.73521
89.59845	2879.963	17.18001
89.6524	2869.462	20.50954
89.70635	2874.906	20.85168
89.76031	2864.959	21.18249
89.81425	2868.376	20.72863
89.86821	2859.39	15.44683
89.92216	2859.401	18.7935
89.97611	2854.939	19.67542
90.03006	2852.351	22.10295
90.08401	2844.514	16.36858
90.13797	2850.229	20.18591
90.19192	2845.843	18.0806
90.24587	2843.728	19.59597
90.29982	2832.296	20.93954
90.35378	2839.339	24.20279
90.40772	2827.113	20.76935
90.46168	2834.309	21.28977
90.51563	2823.21	17.07124
90.56958	2824.912	24.6727
90.62353	2816.281	19.0424
90.67748	2821.385	22.81553
90.73144	2811.802	17.86547
90.78539	2812.129	18.44597
90.83934	2806.359	20.14618
90.89329	2805.22	24.10839
90.94724	2797.876	23.27785
91.00119	2795.937	18.81131
91.05515	2790.089	14.0846
91.10909	2795.79	20.55061
91.16305	2783.694	17.29863
91.217	2785.717	20.96124
91.27095	2778.823	17.02444
91.32491	2779.179	20.771
91.37885	2772.272	18.88457
91.43281	2771.287	17.48854
91.48676	2767.413	16.49655
91.54071	2764.864	16.30094
91.59466	2760.045	17.10236
91.64861	2753.734	17.5577
91.70256	2752.905	18.14585
91.75652	2749.381	16.24139
91.81047	2745.106	18.5283
91.86442	2735.36	13.96973
91.91837	2737.182	19.22019
91.97232	2732.702	15.34001
92.02628	2732.358	16.59646
92.08022	2722.352	13.7974
92.13418	2721.858	19.35955
92.18813	2715.851	14.87051
92.24208	2719.001	17.18634
92.29603	2710.804	12.79511
92.34998	2711.083	20.17914
92.40394	2702.412	17.02186
92.45789	2702.765	19.62644
92.51184	2694.719	16.22343
92.56579	2701.226	15.55409
92.61974	2693.199	12.50701
92.67369	2691.323	19.8194
92.72765	2679.24	13.98654
92.78159	2686.996	19.45732
92.83555	2677.121	13.79448
92.8895	2682.089	20.34483
92.94345	2669.573	18.38828
92.99741	2673.089	20.94795
93.05135	2665.961	19.00737
93.10531	2667.104	22.79794
93.15926	2659.067	23.47793
93.21321	2662.969	19.9979
93.26716	2654.717	16.47483
93.32111	2656.662	19.07732
93.37506	2645.753	14.38649
93.42902	2644.628	19.0678
93.48297	2638.9	15.03919
93.53692	2641.06	18.04949
93.59087	2630.885	12.23521
93.64482	2635.122	20.16257
93.69878	2626.199	15.7501
93.75272	2631.293	19.53649
93.80668	2622.178	16.30204
93.86063	2623.174	17.27772
93.91458	2616.466	12.17538
93.96853	2617.616	17.804
94.02248	2604.691	17.59252
94.07644	2615.073	17.18779
94.13039	2602.191	14.75481
94.18434	2606.948	21.06664
94.23829	2594	20.17249
94.29224	2595.872	16.2761
94.34619	2581.039	14.41738
94.40015	2585.363	24.65871
94.45409	2584.567	24.47014
94.50805	2576.029	17.67003
94.562	2574.732	18.85535
94.61595	2575.43	18.87136
94.66991	2567.97	16.91322
94.72385	2566.413	17.75214
94.77781	2565.104	18.10017
94.83176	2563.391	17.88954
94.88571	2558.907	19.05924
94.93966	2548.813	17.54377
94.99361	2543.903	19.1587
