T[Â°C]	330nm [counts / mm]	S.D.
20.00084	3328.785	14.99304
20.05479	3325.211	19.95197
20.10874	3323.806	13.51528
20.16269	3319.82	18.86594
20.21665	3322.253	14.6572
20.2706	3316.44	11.82988
20.32455	3316.417	15.81421
20.3785	3307.404	12.18749
20.43245	3309.65	12.50506
20.4864	3307.463	17.42981
20.54036	3304.439	22.45502
20.59431	3298.916	14.52484
20.64826	3294.172	16.0087
20.70221	3293.564	18.99357
20.75616	3291.364	19.93594
20.81011	3293.939	17.70382
20.86407	3285.343	15.11502
20.91802	3282.57	17.63456
20.97197	3279.579	15.96768
21.02592	3275.929	20.4154
21.07987	3278.544	19.43992
21.13382	3277.089	21.4693
21.18777	3272.218	18.08168
21.24173	3268.707	17.28741
21.29568	3264.354	17.4418
21.34963	3255.692	30.50322
21.40358	3259.001	26.21395
21.45753	3265.193	25.51934
21.51148	3256.735	23.96229
21.56544	3255.33	22.62705
21.61939	3257.819	16.93249
21.67334	3249.353	15.97601
21.72729	3248.779	20.55283
21.78124	3247.219	16.54063
21.8352	3233.38	14.08685
21.88915	3236.085	16.15726
21.9431	3234.226	14.95662
21.99705	3232.712	14.57739
22.051	3235.575	17.85566
22.10495	3226.763	18.24299
22.15891	3226.17	17.2519
22.21286	3226.49	18.59876
22.26681	3215.759	26.06951
22.32076	3218.264	21.99169
22.37471	3220.021	21.10108
22.42866	3215.821	19.83417
22.48261	3217.036	15.01825
22.53657	3213.706	17.48233
22.59052	3208.685	15.75658
22.64447	3203.489	16.0821
22.69842	3196.319	18.06556
22.75237	3197.357	14.21297
22.80632	3197.354	22.08031
22.86028	3194.251	22.47408
22.91423	3194.272	15.08733
22.96818	3190.138	14.79306
23.02213	3188.083	12.45437
23.07608	3186.19	11.26214
23.13003	3183.217	13.0219
23.18399	3180.219	12.61401
23.23794	3178.265	16.1556
23.29189	3177.093	15.89373
23.34584	3175.706	13.17399
23.39979	3171.129	10.66706
23.45374	3168.174	8.109076
23.5077	3167.216	13.35274
23.56165	3164.004	17.10563
23.6156	3163.239	17.47156
23.66955	3161.107	19.59227
23.7235	3156.135	21.60091
23.77745	3153.518	22.72431
23.83141	3150.339	16.09328
23.88536	3150.633	15.31241
23.93931	3150.311	18.64461
23.99326	3146.079	19.49377
24.04721	3139.796	20.74586
24.10116	3138.598	19.11397
24.15512	3138.415	21.5597
24.20907	3136.42	19.97376
24.26302	3136.471	15.24483
24.31697	3132.758	15.8782
24.37092	3128.429	15.50431
24.42487	3125.965	15.38822
24.47882	3127.228	16.65145
24.53278	3123.295	19.56481
24.58673	3116.58	20.24639
24.64068	3118.486	19.68003
24.69463	3110.081	17.82208
24.74858	3112.074	19.46632
24.80253	3109.61	17.66704
24.85649	3103.613	15.75308
24.91044	3105.01	23.8468
24.96439	3101.431	22.05523
25.01834	3095.66	23.16028
25.07229	3096.007	19.41194
25.12625	3092.842	17.34684
25.1802	3088.206	20.03463
25.23415	3092.444	15.19676
25.2881	3085.307	19.29459
25.34205	3084.08	17.10897
25.396	3081.487	18.18126
25.44995	3073.932	17.31272
25.50391	3078.117	16.63992
25.55786	3076.461	20.27884
25.61181	3075.988	21.14313
25.66576	3070.801	21.26503
25.71971	3069.108	17.45921
25.77366	3064.2	14.94782
25.82762	3063.792	15.11761
25.88157	3053.481	21.78296
25.93552	3055.778	21.45515
25.98947	3052.162	20.64254
26.04342	3055.61	19.73545
26.09737	3054.059	14.25973
26.15133	3047.419	14.11291
26.20528	3044.774	13.16742
26.25923	3043.156	16.44328
26.31318	3039.775	17.07206
26.36713	3039.19	15.31349
26.42108	3030.051	11.26453
26.47503	3033.012	10.59701
26.52899	3034.315	12.99052
26.58294	3031.539	12.09119
26.63689	3026.532	12.03676
26.69084	3023.267	13.32502
26.74479	3019.426	13.71505
26.79875	3017.627	16.2279
26.8527	3017.07	11.0118
26.90665	3015.851	12.21197
26.9606	3014.436	14.05978
27.01455	3013.91	13.68868
27.0685	3012.431	14.34816
27.12246	3005.805	17.595
27.17641	3002.842	21.15148
27.23036	3003.373	19.68813
27.28431	3001.544	16.64577
27.33826	2996.445	16.83176
27.39221	2996.021	14.8059
27.44617	2994.908	16.86898
27.50012	2993.915	21.07245
27.55407	2988.004	14.66362
27.60802	2983.375	14.74864
27.66197	2985.676	15.63503
27.71592	2981.408	15.26535
27.76987	2976.463	18.37002
27.82383	2978.461	22.08491
27.87778	2970.104	18.73244
27.93173	2971.149	19.57506
27.98568	2972.739	19.53358
28.03963	2967.718	18.53305
28.09358	2965.513	21.36689
28.14754	2963.134	18.86865
28.20149	2961.516	18.29799
28.25544	2954.556	20.39832
28.30939	2955.205	16.2477
28.36334	2954.097	14.10054
28.41729	2949.301	25.09792
28.47125	2947	22.73243
28.5252	2946.656	20.4806
28.57915	2941.429	15.75863
28.6331	2939.128	18.35699
28.68705	2941.065	17.47979
28.741	2936.024	17.32537
28.79496	2937.364	13.54917
28.84891	2931.608	13.58623
28.90286	2927.259	13.18094
28.95681	2929.075	12.70533
29.01076	2922.168	15.25383
29.06471	2920.285	21.25228
29.11867	2919.945	19.80732
29.17262	2918.503	20.46262
29.22657	2916.073	22.13203
29.28052	2912.914	17.36958
29.33447	2913.033	17.07007
29.38842	2908.822	10.21383
29.44238	2907.044	14.68556
29.49633	2909.153	18.65634
29.55028	2904.518	17.08782
29.60423	2896.645	16.09704
29.65818	2897.569	17.0444
29.71213	2897.269	18.51176
29.76608	2895.667	16.59058
29.82004	2890.06	15.3925
29.87399	2885.54	12.12471
29.92794	2887.364	9.888758
29.98189	2885.049	14.06555
30.03584	2878.69	10.28022
30.0898	2878.605	11.76256
30.14375	2872.142	13.40378
30.1977	2872.469	15.53475
30.25165	2875.57	21.04425
30.3056	2871.935	19.29379
30.35955	2874.05	17.7342
30.41351	2867.272	20.01518
30.46746	2861.795	17.66928
30.52141	2858.843	19.21741
30.57536	2858.467	15.95615
30.62931	2855.133	12.81401
30.68326	2855.323	15.53195
30.73722	2850.168	16.93414
30.79117	2847.316	17.1643
30.84512	2845.142	16.53168
30.89907	2843.577	16.18599
30.95302	2842.682	14.09727
31.00697	2840.863	11.85194
31.06092	2837.412	16.12198
31.11488	2834.463	20.59697
31.16883	2834.343	19.89799
31.22278	2834.054	22.47246
31.27673	2834.107	19.17262
31.33068	2833.538	21.36954
31.38463	2825.797	20.84915
31.43859	2820.181	18.23603
31.49254	2818.312	16.39394
31.54649	2814.061	13.31536
31.60044	2814.137	21.36861
31.65439	2812.634	22.20914
31.70834	2810.899	17.88708
31.7623	2805.774	21.55326
31.81625	2801.511	18.63265
31.8702	2797.408	18.43047
31.92415	2802.248	14.84218
31.9781	2801.917	10.87166
32.03205	2793.71	15.93289
32.08601	2797.71	14.6197
32.13996	2790.452	12.14808
32.19391	2787.837	16.09605
32.24786	2794.062	13.24227
32.30181	2791.401	12.39031
32.35576	2784.393	16.31918
32.40971	2784.709	15.8908
32.46367	2780.275	11.90744
32.51762	2776.93	15.64055
32.57157	2775.808	14.06917
32.62552	2771.993	12.76255
32.67947	2773.587	11.57374
32.73343	2769.056	16.14122
32.78738	2766.844	16.65321
32.84133	2766.538	17.65601
32.89528	2763.45	16.92006
32.94923	2758.146	13.61247
33.00319	2758.438	13.33072
33.05714	2753.59	14.38184
33.11109	2756.204	10.7814
33.16504	2753.241	13.02874
33.21899	2747.665	8.95405
33.27294	2747.192	11.50432
33.32689	2745.65	15.15688
33.38084	2744.695	15.19089
33.4348	2740.108	18.06555
33.48875	2738.678	18.65555
33.5427	2739.432	15.4958
33.59665	2734.432	18.001
33.6506	2733.295	14.06378
33.70456	2729.818	13.07564
33.75851	2727.007	17.26527
33.81246	2724.986	16.81408
33.86641	2722.505	17.01307
33.92036	2719.798	18.8898
33.97431	2721.858	17.33546
34.02826	2715.087	16.11898
34.08222	2714.672	8.703075
34.13617	2712.08	12.75561
34.19012	2707.483	16.12812
34.24407	2706.13	19.44645
34.29802	2706.41	9.019208
34.35197	2703.897	13.74804
34.40593	2703.678	23.40537
34.45988	2700.191	23.33133
34.51383	2699.469	17.38163
34.56778	2697.95	14.25749
34.62173	2690.148	13.87871
34.67569	2685.668	16.81648
34.72964	2684.278	17.26618
34.78359	2684.939	16.09049
34.83754	2685.044	17.28778
34.89149	2681.689	19.189
34.94544	2678.864	22.33199
34.99939	2674.252	18.00814
35.05334	2665.275	19.30857
35.1073	2672.583	16.34674
35.16125	2673.406	21.14096
35.2152	2665.49	16.91159
35.26915	2662.871	15.18535
35.3231	2665.351	16.99881
35.37706	2661.777	16.23369
35.43101	2664.458	14.21331
35.48496	2658.091	19.46734
35.53891	2656.195	14.57291
35.59286	2652.221	18.63941
35.64681	2653.311	17.22089
35.70076	2651.189	17.26617
35.75472	2648.036	16.08202
35.80867	2647.955	12.99489
35.86262	2640.308	18.02268
35.91657	2637.477	17.03875
35.97052	2641.446	12.18922
36.02448	2635.262	17.02256
36.07843	2635.979	19.05768
36.13238	2633.323	18.90383
36.18633	2630.328	13.72617
36.24028	2630.746	13.84896
36.29424	2628.208	17.50441
36.34819	2624.584	16.08694
36.40214	2622.818	10.4189
36.45609	2617.482	14.08997
36.51004	2617.807	11.83491
36.56399	2616.843	12.69949
36.61794	2610.953	8.222642
36.67189	2611.398	12.5078
36.72585	2605.577	8.460006
36.7798	2604.523	13.61078
36.83375	2607.088	16.30585
36.8877	2603.133	15.72024
36.94165	2600.981	15.14257
36.99561	2596.083	14.07493
37.04956	2595.982	10.01007
37.10351	2591.685	14.50525
37.15746	2594.745	16.27245
37.21141	2591.078	14.94851
37.26536	2587.064	11.13782
37.31931	2581.603	12.48057
37.37326	2584.365	16.69772
37.42722	2580.044	15.23519
37.48117	2575.228	11.01368
37.53512	2574.384	13.86265
37.58907	2572.304	13.97409
37.64302	2572.541	12.87331
37.69698	2566.395	12.71558
37.75093	2568.212	14.28048
37.80488	2566.385	11.86599
37.85883	2564.522	16.82094
37.91278	2565.936	19.62439
37.96674	2560.698	17.84124
38.02069	2558.408	13.88863
38.07464	2555.276	14.30533
38.12859	2559.824	21.82042
38.18254	2552.845	21.44972
38.23649	2552.005	18.13709
38.29044	2547.547	14.31247
38.34439	2547.485	12.86036
38.39835	2546.642	14.59072
38.4523	2539.968	14.99003
38.50625	2536.379	12.0517
38.5602	2536.361	12.82469
38.61415	2531.704	12.83284
38.66811	2532.806	10.04327
38.72206	2533.073	11.37293
38.77601	2526.054	14.15251
38.82996	2525.332	15.40448
38.88391	2522.779	16.34647
38.93786	2518.324	17.28995
38.99181	2517.223	14.86341
39.04576	2520.816	14.64192
39.09972	2518.29	12.88892
39.15367	2516.356	12.03636
39.20762	2513.162	13.61383
39.26157	2508.413	14.01037
39.31553	2503.963	18.19945
39.36948	2509.412	15.5976
39.42343	2504.836	16.84542
39.47738	2498.247	12.82656
39.53133	2498.976	16.77361
39.58528	2498.656	11.05663
39.63924	2496.306	10.17958
39.69319	2496.218	10.05978
39.74714	2491.564	12.18075
39.80109	2486.07	10.9735
39.85504	2485.502	13.11392
39.90899	2485.82	11.01756
39.96294	2483.029	12.86569
40.0169	2481.787	13.63038
40.07085	2479.088	15.58068
40.1248	2477.974	13.04936
40.17875	2474.928	12.35304
40.2327	2472.435	14.03619
40.28666	2467.43	13.20701
40.34061	2468.031	15.30289
40.39456	2464.059	15.67917
40.44851	2465.957	14.5915
40.50246	2462.909	15.74181
40.55641	2461.008	12.71091
40.61036	2456.853	15.45255
40.66431	2457.774	13.52965
40.71827	2452.013	16.4863
40.77222	2445.837	15.80817
40.82617	2447.334	18.79657
40.88012	2449.339	12.78284
40.93407	2445.777	16.59137
40.98803	2448.195	12.4628
41.04198	2444.492	13.48932
41.09593	2444.472	14.64084
41.14988	2438.795	14.53835
41.20383	2437.29	16.29048
41.25779	2437.482	17.08311
41.31174	2433.668	15.56512
41.36569	2430.302	17.98899
41.41964	2430.141	14.49103
41.47359	2425.037	14.81294
41.52754	2428.23	14.88958
41.58149	2423.02	17.01838
41.63544	2416.123	14.2275
41.6894	2413.382	16.02304
41.74335	2411.423	9.230821
41.7973	2411.188	12.03344
41.85125	2410.615	10.79892
41.9052	2408.261	13.43256
41.95916	2408.01	15.40995
42.01311	2405.015	12.98112
42.06706	2408.44	11.53923
42.12101	2403.021	13.00378
42.17496	2396.912	14.58016
42.22891	2398.52	16.40912
42.28286	2398.902	18.58448
42.33681	2392.162	14.21059
42.39077	2390.598	15.61827
42.44472	2388.76	13.69619
42.49867	2383.672	11.75605
42.55262	2384.75	13.94131
42.60658	2379.151	18.86678
42.66053	2383.236	15.04085
42.71448	2380.139	13.80152
42.76843	2377.961	11.16577
42.82238	2376.539	14.47641
42.87633	2372.791	13.12459
42.93029	2370.306	13.55718
42.98424	2374.211	11.86479
43.03819	2366.52	14.30395
43.09214	2366.287	8.175962
43.14609	2361.604	11.55098
43.20004	2363.846	13.90735
43.25399	2360.059	20.83066
43.30795	2360.103	12.35509
43.3619	2357.117	16.31572
43.41585	2357.941	17.00372
43.4698	2352.785	17.04102
43.52375	2353.219	11.0412
43.57771	2349.915	12.17961
43.63166	2343.777	9.714425
43.68561	2341.672	14.80743
43.73956	2344.036	14.55187
43.79351	2338.334	9.7033
43.84746	2338.155	11.51553
43.90141	2331.831	14.96326
43.95536	2333.767	11.34753
44.00932	2330.012	11.26268
44.06327	2331.169	12.44345
44.11722	2329.426	12.31598
44.17117	2327.353	10.93382
44.22512	2326.493	11.49075
44.27908	2324.103	12.40647
44.33303	2322.028	18.31203
44.38698	2319.078	11.32925
44.44093	2317.791	10.02817
44.49488	2319.908	9.362856
44.54883	2314.923	13.99977
44.60279	2308.746	10.41619
44.65674	2307.302	15.21277
44.71069	2306.424	12.26825
44.76464	2301.758	13.73826
44.81859	2303.37	12.36539
44.87254	2301.248	16.7573
44.92649	2297.885	14.34756
44.98045	2293.392	17.1275
45.0344	2290.988	11.23941
45.08835	2290.155	14.82341
45.1423	2288.785	12.30583
45.19625	2289.583	13.56335
45.25021	2290.112	14.03311
45.30416	2285.648	12.27006
45.35811	2282.84	11.75585
45.41206	2281.963	13.18623
45.46601	2278.839	12.21157
45.51996	2276.959	13.61363
45.57391	2276.235	12.11213
45.62786	2273.534	14.38009
45.68182	2272.367	13.52946
45.73577	2268.875	13.82036
45.78972	2265.435	14.15972
45.84367	2264.591	16.92134
45.89762	2263.027	19.81818
45.95158	2262.888	12.00333
46.00553	2262.602	15.85108
46.05948	2258.909	10.54083
46.11343	2254.157	10.27326
46.16738	2257.221	9.367568
46.22133	2251.68	8.460542
46.27529	2250.675	14.37586
46.32924	2245.636	15.40474
46.38319	2248.771	9.839763
46.43714	2241.318	13.55879
46.49109	2242.338	6.886335
46.54504	2242.635	8.901202
46.599	2238.881	10.80734
46.65295	2236.965	14.53004
46.7069	2236.514	9.619967
46.76085	2234.861	12.79264
46.8148	2234.646	12.88305
46.86876	2230.537	14.00112
46.92271	2229.025	10.50474
46.97666	2228.397	14.09038
47.03061	2224.154	12.265
47.08456	2223.358	14.94239
47.13851	2222.028	9.938508
47.19246	2217.635	14.34574
47.24641	2218.335	8.627195
47.30037	2214.409	12.60507
47.35432	2214.846	13.19083
47.40827	2212.454	16.26657
47.46222	2208.829	10.45352
47.51617	2206.466	14.03503
47.57013	2205.81	11.8026
47.62408	2199.671	13.25431
47.67803	2200.382	13.02071
47.73198	2196.683	12.80138
47.78593	2196.647	15.36644
47.83988	2194.443	16.54832
47.89384	2195.041	11.98993
47.94779	2194.621	13.71648
48.00174	2189.612	9.385934
48.05569	2188.814	12.84616
48.10964	2188.795	18.34301
48.16359	2182.333	18.79143
48.21754	2183.948	11.60045
48.2715	2179.832	13.91356
48.32545	2174.55	11.63152
48.3794	2172.942	13.28216
48.43335	2174.579	12.76112
48.4873	2173.236	11.80066
48.54126	2174.022	12.40251
48.59521	2169.492	11.28797
48.64916	2173.281	9.463872
48.70311	2164.793	9.642961
48.75706	2164.853	8.212467
48.81101	2161.493	11.05141
48.86496	2160.039	9.678909
48.91891	2159.319	12.13965
48.97287	2157.036	10.47203
49.02682	2154.651	9.576785
49.08077	2153.715	10.25494
49.13472	2148.738	9.786382
49.18867	2149.785	6.12041
49.24263	2147.441	8.348218
49.29658	2146.251	13.33933
49.35053	2144.961	15.04684
49.40448	2141.771	12.43223
49.45843	2140.757	11.50211
49.51238	2138.352	13.83306
49.56634	2134.387	11.57199
49.62029	2133.684	11.08803
49.67424	2132.499	9.884738
49.72819	2127.676	12.07737
49.78214	2127.104	8.103155
49.83609	2121.948	7.661159
49.89005	2123.083	6.257963
49.944	2115.931	11.85545
49.99795	2118.651	10.87004
50.0519	2118.525	12.13824
50.10585	2118.408	10.48987
50.15981	2115.128	10.44938
50.21376	2113.054	10.45016
50.26771	2109.457	10.43376
50.32166	2107.852	12.82986
50.37561	2104.324	15.55845
50.42956	2107.964	12.96952
50.48351	2106.241	13.82781
50.53746	2102.188	11.39492
50.59142	2100.158	12.29653
50.64537	2098.904	9.078907
50.69932	2093.017	11.94538
50.75327	2093.625	9.91536
50.80722	2089.465	9.811642
50.86118	2093.018	9.768809
50.91513	2089.457	15.08166
50.96908	2084.075	12.4573
51.02303	2086.01	14.24311
51.07698	2085.235	12.78773
51.13093	2084.072	13.78487
51.18488	2083.414	14.82405
51.23884	2080.24	11.93452
51.29279	2076.237	11.52242
51.34674	2073.255	15.33845
51.40069	2073.849	10.11755
51.45464	2068.625	12.43603
51.50859	2069.941	9.068784
51.56255	2065.5	10.6709
51.6165	2067.766	11.99772
51.67045	2062.205	12.47666
51.7244	2062.471	9.497708
51.77835	2058.766	10.95964
51.83231	2059.286	13.56563
51.88626	2056.117	15.68166
51.94021	2056.064	11.86807
51.99416	2053.486	13.87457
52.04811	2052.971	9.714975
52.10206	2052.127	9.666052
52.15601	2051.648	7.856932
52.20996	2045.373	10.33162
52.26392	2044.338	7.885182
52.31787	2041.142	10.65209
52.37182	2043.256	15.13538
52.42577	2037.647	13.15355
52.47972	2038.613	10.47591
52.53368	2034.985	13.96417
52.58763	2030.225	13.70819
52.64158	2027.957	11.65371
52.69553	2031.458	9.885859
52.74948	2027.614	11.12931
52.80343	2025.813	8.224761
52.85739	2024.448	9.757029
52.91134	2020.596	9.712475
52.96529	2021.088	10.52505
53.01924	2019.428	10.06526
53.07319	2016.481	8.513862
53.12714	2016.732	8.92056
53.1811	2014.052	12.34233
53.23505	2010.917	9.880162
53.289	2011.257	8.319903
53.34295	2006.016	15.09639
53.3969	2003.858	9.269649
53.45086	2000.299	11.34672
53.50481	2001.202	16.01347
53.55876	2001.661	15.88362
53.61271	1998.064	10.59361
53.66666	1995.186	11.76415
53.72061	1997.632	10.48073
53.77456	1993.284	12.44952
53.82851	1992.22	10.14552
53.88247	1988.715	6.957769
53.93642	1988.256	8.957548
53.99037	1985.29	8.993658
54.04432	1982.556	7.997982
54.09827	1981.66	7.987979
54.15223	1982.862	7.388629
54.20618	1977.411	7.85942
54.26013	1979.831	6.093184
54.31408	1973.836	11.22371
54.36803	1974.056	13.08309
54.42198	1971.053	16.69704
54.47593	1968.374	12.05828
54.52989	1965.019	13.10164
54.58384	1965.494	9.941998
54.63779	1962.579	13.09157
54.69174	1967.311	11.10266
54.74569	1959.751	10.21085
54.79964	1962.378	7.017731
54.8536	1958.971	9.078678
54.90755	1956.596	6.582573
54.9615	1951.37	9.668805
55.01545	1949.706	7.310191
55.0694	1949.043	13.39859
55.12336	1950.062	9.476483
55.17731	1943.381	11.5265
55.23126	1945.069	11.74239
55.28521	1942.562	13.62029
55.33916	1938.398	6.72459
55.39311	1938.375	10.68926
55.44706	1938.973	8.002929
55.50101	1937.004	10.49868
55.55497	1938.733	7.568758
55.60892	1932.213	9.268992
55.66287	1931.239	9.903382
55.71682	1928.77	12.26594
55.77077	1931.221	8.980246
55.82473	1925.68	9.994264
55.87868	1924.045	8.40323
55.93263	1918.979	10.51489
55.98658	1924.121	9.431647
56.04053	1920.632	11.21316
56.09448	1922.294	10.23477
56.14843	1916.672	11.73679
56.20239	1917.137	8.499109
56.25634	1911.473	11.12548
56.31029	1909.55	9.270516
56.36424	1908.263	8.629003
56.41819	1907.065	8.207229
56.47215	1903.607	8.031748
56.5261	1900.951	7.252582
56.58005	1901.542	7.160376
56.634	1899.008	7.282865
56.68795	1895.937	9.141956
56.74191	1892.506	12.02236
56.79586	1893.718	9.826307
56.84981	1893.174	12.10865
56.90376	1890.448	10.88645
56.95771	1887.33	11.93894
57.01166	1884.28	7.3699
57.06561	1876.746	12.10455
57.11956	1887.095	7.467782
57.17352	1880.897	8.994843
57.22747	1881.648	7.07764
57.28142	1877.567	10.08277
57.33537	1874.211	12.79926
57.38932	1874.525	16.08845
57.44328	1870.405	10.67034
57.49723	1868.752	7.894608
57.55118	1869.809	7.859573
57.60513	1865.781	7.372106
57.65908	1869.62	8.400127
57.71303	1863.237	11.14957
57.76698	1863.127	9.375463
57.82094	1862.1	10.03547
57.87489	1858.631	7.434844
57.92884	1857.746	12.27652
57.98279	1852.852	12.64041
58.03674	1852.367	14.31409
58.09069	1850.615	11.65
58.14465	1849.446	11.98336
58.1986	1852.738	12.73228
58.25255	1849.356	14.48656
58.3065	1846.657	9.166786
58.36045	1845.757	9.285664
58.41441	1844.689	9.574735
58.46836	1838.494	11.30307
58.52231	1843.072	8.141539
58.57626	1836.405	10.22853
58.63021	1835.667	8.477779
58.68416	1831.652	9.719616
58.73811	1831.991	8.907158
58.79206	1828.913	11.18494
58.84602	1825.665	6.115984
58.89997	1824.438	8.007697
58.95392	1820.763	10.83735
59.00787	1818.789	14.02062
59.06182	1823.996	9.614951
59.11578	1821.757	7.885112
59.16973	1821.351	5.644798
59.22368	1818.988	8.752181
59.27763	1820.393	6.087383
59.33158	1814.88	8.150499
59.38553	1811.764	11.09471
59.43948	1810.734	12.61073
59.49344	1805.672	8.93694
59.54739	1803.267	10.89686
59.60134	1804.495	11.95543
59.65529	1806.819	10.01061
59.70924	1804.005	10.84196
59.7632	1799.855	7.16655
59.81715	1796.495	9.19342
59.8711	1798.652	11.57014
59.92505	1797.655	14.57076
59.979	1796.348	10.28194
60.03296	1793.588	11.24455
60.08691	1792.668	6.662031
60.14086	1790.867	7.007782
60.19481	1790.335	7.187404
60.24876	1786.173	9.766486
60.30271	1784.525	7.593752
60.35666	1776.088	10.20897
60.41061	1781.382	9.398126
60.46457	1779.345	11.63669
60.51852	1777.041	6.077032
60.57247	1774.257	10.18104
60.62642	1772.982	10.75093
60.68037	1770.428	12.11306
60.73433	1770.919	6.014693
60.78828	1770.544	6.274086
60.84223	1766.766	5.200684
60.89618	1764.7	7.146327
60.95013	1767.184	8.800934
61.00408	1763.075	9.065746
61.05803	1760.597	6.183329
61.11198	1759.248	9.380102
61.16594	1756.424	9.556052
61.21989	1754.914	10.60689
61.27384	1757.301	3.455264
61.32779	1752.856	8.055232
61.38174	1753.225	7.964854
61.4357	1749.463	6.666218
61.48965	1750.763	8.674408
61.5436	1747.869	10.81236
61.59755	1746.616	9.099904
61.6515	1743.578	9.89233
61.70546	1741.373	6.123619
61.75941	1739.948	9.149385
61.81336	1740.24	12.63739
61.86731	1737.53	12.0205
61.92126	1736.54	5.610458
61.97521	1733.47	9.63934
62.02916	1734.755	10.21399
62.08311	1730.922	10.67788
62.13707	1734.279	9.284959
62.19102	1729.093	10.77572
62.24497	1728.201	6.576423
62.29892	1723.091	10.56366
62.35287	1724.685	7.539638
62.40683	1719.937	10.34811
62.46078	1719.865	11.17511
62.51473	1719.175	12.81426
62.56868	1718.2	10.20202
62.62263	1716.264	8.108761
62.67658	1713.041	10.33708
62.73053	1712.207	8.714006
62.78448	1712.785	9.862489
62.83844	1710.202	8.209202
62.89239	1706.327	9.270215
62.94634	1710.103	9.775262
63.00029	1705.398	10.90491
63.05424	1704.349	9.135848
63.1082	1701.811	10.87457
63.16215	1700.209	9.091825
63.2161	1698.302	8.964509
63.27005	1700.2	9.190886
63.324	1698.798	11.05317
63.37796	1695.515	8.400789
63.43191	1689.105	11.93952
63.48586	1690.896	6.784949
63.53981	1688.613	9.476276
63.59376	1689.626	8.072511
63.64771	1688.355	9.96652
63.70166	1687.934	7.856236
63.75562	1684.207	11.81366
63.80957	1685.097	8.73251
63.86352	1683.131	7.971993
63.91747	1683.898	2.804203
63.97142	1679.617	5.406484
64.02538	1679.445	3.188874
64.07932	1674.839	9.474027
64.13328	1680.817	8.220944
64.18723	1674.979	11.38525
64.24118	1673.271	7.940193
64.29514	1670.787	10.2471
64.34908	1672.443	4.966772
64.40304	1670.936	9.825944
64.45699	1670.363	7.112291
64.51094	1665.841	12.1295
64.56489	1672.061	5.285842
64.61884	1664.577	8.375452
64.67279	1663.28	3.54809
64.72675	1661.662	6.556978
64.7807	1666.438	7.357885
64.83465	1661.664	9.608274
64.8886	1662.681	3.138102
64.94255	1659.266	9.599062
64.99651	1660.774	6.6823
65.05045	1656.255	10.10694
65.10441	1656.349	8.722322
65.15836	1653.524	11.9359
65.21231	1656.421	9.651855
65.26626	1654.168	12.12696
65.32021	1648.59	8.428144
65.37417	1649.462	9.878942
65.42812	1652.986	11.7249
65.48207	1651.694	12.5913
65.53602	1650.886	9.177511
65.58997	1648.743	9.480654
65.64392	1652.317	8.09271
65.69788	1649.613	9.337
65.75182	1649.343	9.739499
65.80578	1652.106	8.249407
65.85973	1647.773	8.918722
65.91368	1646.329	9.004283
65.96764	1644.856	10.31916
66.02158	1644.565	9.154121
66.07554	1642.744	12.01129
66.12949	1645.883	12.13996
66.18344	1640.82	13.61867
66.23739	1644.686	11.25523
66.29134	1639.173	13.29756
66.34529	1648.966	11.30039
66.39925	1647.273	14.08439
66.4532	1647.791	12.10393
66.50715	1644.454	13.95307
66.5611	1643.905	8.656317
66.61505	1644.885	8.992068
66.66901	1653.33	9.564564
66.72295	1648.954	11.13844
66.77691	1649.5	9.911643
66.83086	1647.408	12.39849
66.88481	1651.553	9.805912
66.93877	1649.864	15.39238
66.99271	1652.882	12.99951
67.04667	1649.81	13.47024
67.10062	1655.132	10.45563
67.15457	1654.083	12.12246
67.20852	1660.821	13.2907
67.26247	1657.237	16.37749
67.31642	1662.211	12.18906
67.37038	1658.835	15.32645
67.42432	1666.652	13.50839
67.47828	1667.906	16.48741
67.53223	1666.358	15.62563
67.58618	1670.487	17.71253
67.64014	1672.994	12.62523
67.69408	1675.148	11.43106
67.74804	1681.277	14.29642
67.80199	1682.899	15.92935
67.85594	1684.903	14.18282
67.90989	1688.169	15.80633
67.96384	1695.391	14.49039
68.01779	1695.5	15.80633
68.07175	1701.423	10.36171
68.1257	1704.515	16.53656
68.17965	1709.961	12.66677
68.2336	1710.646	18.76892
68.28755	1717.507	14.656
68.34151	1720.339	18.37417
68.39545	1727.298	20.49451
68.44941	1731.432	21.68929
68.50336	1739.237	16.31238
68.55731	1741.434	21.16986
68.61127	1750.363	17.56946
68.66521	1753.414	21.27977
68.71917	1761.932	22.42778
68.77312	1768.727	24.22304
68.82707	1774.232	23.95709
68.88102	1780.343	25.60699
68.93497	1789.41	22.80095
68.98892	1795.9	24.09933
69.04288	1804.283	25.20563
69.09682	1808.937	25.40427
69.15078	1815.344	26.98513
69.20473	1829.31	27.01184
69.25868	1835.192	26.39164
69.31264	1847.017	29.66641
69.36658	1851.072	31.11155
69.42054	1863.981	31.60231
69.47449	1873.096	37.15504
69.52844	1884.408	33.31862
69.58239	1892.451	37.94058
69.63634	1906.103	29.83146
69.6903	1915.164	35.03454
69.74425	1927.02	32.8726
69.7982	1933.931	36.4357
69.85215	1952.023	34.34747
69.90611	1957.863	38.03909
69.96005	1975.374	35.94959
70.01401	1981.718	39.42107
70.06796	2002.734	37.01812
70.12191	2012.195	40.48055
70.17586	2028.393	41.37894
70.22981	2036.801	43.09103
70.28377	2052.409	38.2971
70.33772	2067.399	39.45509
70.39167	2087.335	40.28395
70.44562	2095.36	45.355
70.49957	2115.358	46.19775
70.55352	2123.967	50.21902
70.60748	2150.096	45.49229
70.66142	2161.958	49.54145
70.71538	2185.641	45.67244
70.76933	2200.174	43.81985
70.82328	2215.466	44.56732
70.87724	2231.375	47.55547
70.93118	2254.334	40.91813
70.98514	2270.003	46.94932
71.03909	2297.272	42.05186
71.09304	2308.237	46.02655
71.14699	2333.606	48.2795
71.20094	2347.275	51.55714
71.25489	2370.829	50.9052
71.30885	2389.737	56.35175
71.3628	2414.345	54.8208
71.41675	2429.838	59.36229
71.4707	2455.121	51.64664
71.52465	2471.912	54.67936
71.57861	2501.161	52.89045
71.63255	2517.698	56.68249
71.68651	2551.4	50.61905
71.74046	2564.06	58.35681
71.79441	2595.915	50.66853
71.84836	2614.514	58.19952
71.90231	2643.25	60.41848
71.95627	2665.285	60.49497
72.01022	2692.488	65.90462
72.06417	2716.375	67.64362
72.11812	2742.557	65.33963
72.17207	2765.309	64.4118
72.22602	2785.254	72.54905
72.27998	2819.907	67.81015
72.33392	2838.514	69.56033
72.38788	2871.308	62.3117
72.44183	2890.417	66.5892
72.49578	2922.494	62.54853
72.54974	2941.42	67.28297
72.60368	2978.75	59.34905
72.65764	2996.211	64.48949
72.71159	3026.634	57.65689
72.76554	3045.64	60.11187
72.81949	3072.21	52.9035
72.87344	3084.314	63.04952
72.92739	3118.211	55.87912
72.98135	3126.4	62.10758
73.0353	3160.254	55.32094
73.08925	3167.579	57.09035
73.1432	3194.663	50.54064
73.19715	3205.906	53.9331
73.25111	3230.185	45.23119
73.30505	3242.205	50.6513
73.35901	3265.57	44.79481
73.41296	3276.081	47.46952
73.46691	3292.645	44.29415
73.52086	3301.01	52.19006
73.57481	3318.955	40.74501
73.62877	3324.016	47.54376
73.68272	3338.559	36.7958
73.73667	3346.281	41.40453
73.79062	3367.768	40.98284
73.84457	3370.729	48.63589
73.89852	3384.729	34.57958
73.95248	3382.385	36.6754
74.00642	3400.845	32.581
74.06038	3404.243	36.96488
74.11433	3428.69	26.96345
74.16828	3423.026	31.49701
74.22224	3439.937	26.64768
74.27618	3434.754	30.7725
74.33014	3448.874	23.22157
74.38409	3447.03	34.16006
74.43804	3459.91	26.49466
74.49199	3457.113	32.02466
74.54594	3473.281	31.5487
74.59989	3469.299	34.77411
74.65385	3483.055	29.60889
74.7078	3481.158	35.02705
74.76175	3480.794	37.61264
74.8157	3488.272	32.4211
74.86965	3491.119	33.14706
74.92361	3493.441	36.66651
74.97755	3495.047	39.86377
75.03151	3509.188	27.63785
75.08546	3511.014	34.52612
75.13941	3519.396	27.47141
75.19336	3509.269	30.66617
75.24731	3523.213	28.39659
75.30127	3516.71	37.05738
75.35522	3535.96	30.90139
75.40917	3531.645	36.62578
75.46312	3539.476	31.45195
75.51707	3535.334	39.20269
75.57102	3545.709	27.42198
75.62498	3544.102	36.3207
75.67892	3554.765	27.36136
75.73288	3548.496	33.88104
75.78683	3560.629	26.76689
75.84078	3554.308	34.53371
75.89474	3563.551	24.05214
75.94868	3557.532	28.6318
76.00264	3576.325	21.39376
76.05659	3570.834	27.13183
76.11054	3570.769	27.7571
76.16449	3571.856	29.92922
76.21844	3575.486	19.51456
76.27239	3573.914	25.56485
76.32635	3587.449	22.94058
76.3803	3582.862	30.70937
76.43425	3594.245	15.97279
76.4882	3586.326	22.38581
76.54215	3595.512	14.4305
76.59611	3591.874	20.75361
76.65005	3596.426	20.05096
76.70401	3597.627	21.01637
76.75796	3595.884	25.49457
76.81191	3600.791	21.10172
76.86586	3594.875	29.08331
76.91982	3601.558	22.72778
76.97377	3602.176	28.61296
77.02772	3611.652	27.35414
77.08167	3609.751	35.22738
77.13562	3612.749	24.11752
77.18958	3610.019	33.02843
77.24352	3618.443	20.74841
77.29748	3610.751	33.79548
77.35143	3620.637	24.00517
77.40538	3608.693	33.45818
77.45934	3618.199	23.97282
77.51328	3615.135	26.33895
77.56724	3621.415	14.45531
77.62119	3617.767	22.03896
77.67514	3626.051	18.99356
77.72909	3618.294	23.57231
77.78304	3625.03	16.83947
77.83699	3618.036	24.14173
77.89095	3617.125	21.73243
77.94489	3615.54	24.57131
77.99885	3623.584	20.32967
78.0528	3615.634	26.53918
78.10675	3623.474	23.14126
78.16071	3615.711	27.36452
78.21465	3618.485	25.24562
78.26861	3616.423	32.67904
78.32256	3615.696	28.63365
78.37651	3615.771	30.94848
78.43046	3615.923	33.09501
78.48441	3615.122	34.44286
78.53837	3610.697	42.88508
78.59232	3616.225	37.57891
78.64627	3614.775	46.69263
78.70022	3613.003	40.98114
78.75417	3608.139	49.51678
78.80812	3617.151	42.1138
78.86208	3611.495	45.05756
78.91602	3620.981	35.44866
78.96998	3610.414	42.63374
79.02393	3619.297	36.97534
79.07788	3615.231	48.43335
79.13184	3619.14	33.56413
79.18578	3618.675	37.95925
79.23974	3624.285	30.01727
79.29369	3616.768	36.87946
79.34764	3629.311	30.21878
79.40159	3623.568	41.76461
79.45554	3633.137	33.57333
79.50949	3620.539	44.94465
79.56345	3629.759	33.41652
79.61739	3622.494	46.31377
79.67135	3632.107	40.65422
79.7253	3627.98	46.24057
79.77925	3634.388	30.71737
79.83321	3630.603	37.14595
79.88715	3633.239	31.2211
79.94111	3632.289	36.49319
79.99506	3636.807	28.76007
80.04901	3633.703	35.78278
80.10296	3636.117	24.65841
80.15691	3635.106	33.50441
80.21087	3646.565	31.76579
80.26482	3639.345	35.156
80.31877	3640.715	29.78217
80.37272	3639.434	32.81853
80.42667	3641.063	36.13867
80.48062	3641.3	36.34718
80.53458	3635.801	40.38691
80.58852	3643.108	39.12903
80.64248	3638.587	44.29552
80.69643	3649.068	30.6996
80.75038	3647.286	38.68846
80.80434	3648.995	30.56344
80.85828	3637.022	42.78718
80.91224	3650.254	30.38634
80.96619	3643.006	38.10967
81.02014	3652.337	32.7109
81.07409	3645.879	37.28459
81.12804	3653.808	29.87128
81.18199	3648.222	40.12351
81.23595	3653.288	30.88264
81.2899	3647.03	37.7559
81.34385	3657.699	33.01502
81.3978	3656.57	39.2271
81.45175	3657.059	30.21688
81.50571	3654.577	32.82674
81.55965	3657.539	23.73671
81.61361	3654.7	32.46444
81.66756	3669.464	23.4282
81.72151	3663.598	28.20004
81.77546	3665.476	28.87266
81.82941	3660.58	30.83425
81.88337	3669.434	24.8862
81.93732	3657.621	31.33718
81.99127	3670.708	18.74193
82.04522	3664.165	27.74117
82.09917	3665.825	24.52009
82.15312	3662.727	31.26667
82.20708	3671.457	21.35499
82.26102	3664.908	25.06971
82.31498	3669.616	18.31376
82.36893	3667.693	29.32572
82.42288	3672.812	18.15428
82.47684	3672.303	22.967
82.53078	3676.015	26.1922
82.58474	3674.837	27.88607
82.63869	3673.623	26.92987
82.69264	3673.274	28.85244
82.74659	3673.46	23.59473
82.80054	3676.778	19.86328
82.85449	3675.959	30.06989
82.90845	3677.749	25.20497
82.9624	3675.726	35.98252
83.01635	3680.464	23.33391
83.0703	3674.548	29.93326
83.12425	3684.203	23.94747
83.17821	3676.995	29.13104
83.23215	3689.631	26.21264
83.28611	3681.031	30.78332
83.34006	3682.56	25.1554
83.39401	3672.285	33.55735
83.44796	3692.669	20.21956
83.50191	3683.528	25.0323
83.55587	3687.51	19.70956
83.60982	3682.8	25.4394
83.66377	3691.116	18.81675
83.71772	3686.738	27.72531
83.77168	3691.235	19.92841
83.82562	3685.468	25.44347
83.87958	3696.181	14.55284
83.93353	3686.015	26.00837
83.98748	3690.45	16.57192
84.04143	3682.263	22.49859
84.09538	3692.717	17.05765
84.14934	3685.438	23.54498
84.20329	3690.88	16.35749
84.25724	3681.857	24.55698
84.31119	3688.645	12.17165
84.36514	3685.124	17.87206
84.41909	3683.485	16.91161
84.47305	3680.012	23.04032
84.52699	3691.804	13.44839
84.58095	3682.778	18.99587
84.6349	3690.359	9.158998
84.68885	3677.865	21.91076
84.74281	3690.338	21.4984
84.79675	3679.463	19.10476
84.85071	3685.717	20.50414
84.90466	3676.847	20.33504
84.95861	3671.625	21.37767
85.01256	3674.552	21.42012
85.06651	3670.965	23.19093
85.12046	3672.663	24.99536
85.17442	3666.888	24.15652
85.22837	3670.242	16.06724
85.28232	3664.687	17.51503
85.33627	3668.09	22.82201
85.39022	3661.617	26.48387
85.44418	3659.667	21.35075
85.49812	3655.333	22.48524
85.55208	3661.882	20.17023
85.60603	3653.801	20.003
85.65998	3656.046	18.31317
85.71394	3650.206	24.6099
85.76788	3648.329	22.04239
85.82184	3643.676	22.16201
85.87579	3644.549	19.38495
85.92974	3634.301	23.43377
85.98369	3641.251	18.27963
86.03764	3631.016	24.21414
86.09159	3634.969	16.59558
86.14555	3624.6	15.63765
86.19949	3629.677	18.68977
86.25345	3621.818	22.7138
86.3074	3625.705	15.69962
86.36135	3618.586	16.76117
86.41531	3623.465	13.43276
86.46925	3615.253	20.55867
86.52321	3617.883	19.52669
86.57716	3613.392	21.56261
86.63111	3611.857	15.39518
86.68506	3603.468	16.36494
86.73901	3606.438	14.8923
86.79296	3599.346	16.42093
86.84692	3606.223	14.01577
86.90087	3593.941	18.04388
86.95482	3591.273	22.24043
87.00877	3580.486	15.7837
87.06272	3583.361	24.14003
87.11668	3575.258	23.1078
87.17062	3580.048	21.97756
87.22458	3569.464	22.13329
87.27853	3563.593	23.52452
87.33248	3556.456	21.35697
87.38644	3568.535	22.99391
87.44038	3556.839	19.0775
87.49434	3559.928	25.82757
87.54829	3546.881	24.89555
87.60224	3553.029	21.4865
87.65619	3543.523	19.47441
87.71014	3551.465	24.6307
87.76409	3540.718	23.36963
87.81805	3534.416	25.24141
87.87199	3530.092	21.46012
87.92595	3526.332	24.40145
87.9799	3522.449	23.348
88.03385	3520.87	20.58461
88.08781	3514.438	19.78935
88.14175	3508.9	20.31028
88.19571	3510.035	18.16863
88.24966	3506.358	19.12868
88.30361	3501.37	17.26739
88.35756	3485.212	11.37738
88.41151	3487.749	15.9271
88.46547	3479.005	14.98369
88.51942	3489.432	15.52657
88.57337	3477.065	22.12092
88.62732	3481.234	18.82351
88.68127	3475.749	26.12086
88.73522	3475.302	21.57541
88.78918	3466.853	19.93144
88.84312	3469.945	21.67042
88.89708	3457.442	26.47815
88.95103	3460.074	19.47613
89.00498	3447.753	25.27359
89.05894	3453.748	17.78937
89.11288	3441.993	17.51146
89.16684	3446.103	23.08271
89.22079	3437.655	20.06974
89.27474	3436.767	22.59862
89.32869	3427.279	22.93141
89.38264	3426.672	20.18201
89.43659	3414.989	21.35367
89.49055	3425.821	23.04146
89.54449	3413.468	23.08868
89.59845	3410.399	29.17931
89.6524	3403.089	28.16939
89.70635	3408.636	24.42101
89.76031	3394.186	23.73339
89.81425	3397.016	26.55729
89.86821	3388.315	25.34167
89.92216	3390.555	21.91717
89.97611	3380.739	21.93749
90.03006	3380.473	24.44779
90.08401	3370.708	23.15554
90.13797	3380.611	23.37444
90.19192	3370.738	24.72563
90.24587	3372.109	24.49476
90.29982	3360.269	23.69603
90.35378	3361.845	23.74232
90.40772	3350.508	21.32824
90.46168	3355.03	23.25238
90.51563	3341.867	23.41933
90.56958	3346.839	21.56261
90.62353	3337.408	19.97155
90.67748	3341.97	20.32237
90.73144	3326.671	20.07193
90.78539	3324.992	21.80401
90.83934	3320.603	21.64534
90.89329	3315.755	21.53534
90.94724	3306.009	23.31033
91.00119	3314.855	26.34298
91.05515	3304.942	23.55307
91.10909	3303.442	27.36804
91.16305	3292.031	23.17828
91.217	3295.171	25.07304
91.27095	3284.173	22.8502
91.32491	3284.516	23.27071
91.37885	3277.698	22.47659
91.43281	3278.858	21.73354
91.48676	3273.76	18.6661
91.54071	3268.789	17.16958
91.59466	3265.171	18.7732
91.64861	3260.532	19.55208
91.70256	3256.383	23.79899
91.75652	3252.181	22.96342
91.81047	3249.558	24.5766
91.86442	3234.423	24.28839
91.91837	3234.843	22.146
91.97232	3223.247	22.49169
92.02628	3232.976	22.05853
92.08022	3223.029	16.5522
92.13418	3220.961	29.23612
92.18813	3209.38	25.7049
92.24208	3213.299	24.04983
92.29603	3203.404	25.27064
92.34998	3205.21	23.78326
92.40394	3195.298	19.53473
92.45789	3197.489	24.57197
92.51184	3187.546	18.27719
92.56579	3191.245	23.92422
92.61974	3180.694	22.38052
92.67369	3180.563	21.6447
92.72765	3168.646	17.2451
92.78159	3173.097	19.94365
92.83555	3162.718	13.28891
92.8895	3165.336	20.86714
92.94345	3149.684	17.63372
92.99741	3159.268	25.34663
93.05135	3150.341	20.7816
93.10531	3149.807	22.98393
93.15926	3140.616	18.49718
93.21321	3141.018	22.55923
93.26716	3133.855	17.92017
93.32111	3135.175	22.36571
93.37506	3124.214	14.66192
93.42902	3123.005	24.5922
93.48297	3111.092	19.9024
93.53692	3119.482	22.7509
93.59087	3102.997	15.10889
93.64482	3107.749	19.18196
93.69878	3098.565	15.88485
93.75272	3102.006	15.86301
93.80668	3095.555	13.83221
93.86063	3091.487	22.73444
93.91458	3081.403	16.03778
93.96853	3086.653	18.4072
94.02248	3074.175	17.71015
94.07644	3078.497	26.35649
94.13039	3064.582	17.44116
94.18434	3071.335	19.2474
94.23829	3062.529	18.92981
94.29224	3060.272	23.28137
94.34619	3044.547	22.65667
94.40015	3053.416	25.46721
94.45409	3050.629	19.80817
94.50805	3040.968	21.55756
94.562	3042.311	25.11641
94.61595	3037.794	23.22908
94.66991	3027.067	16.91243
94.72385	3026.71	18.19921
94.77781	3021.562	21.33123
94.83176	3021.458	26.89801
94.88571	3018.279	20.90749
94.93966	3001.416	17.76111
94.99361	2992.048	21.9027
