T[Â°C]	330nm [counts / mm]	S.D.
20.00061	4990.367	9.783671
20.05472	4993.237	9.533613
20.10883	4987.24	17.92163
20.16294	4977.196	8.391043
20.21704	4971.864	10.38816
20.27115	4975.005	9.195559
20.32526	4963.864	9.129539
20.37937	4965.188	11.69221
20.43348	4966.767	17.07559
20.48759	4952.258	11.85562
20.54169	4951.213	10.30508
20.5958	4948.225	12.47124
20.64991	4940.839	14.83647
20.70402	4933.832	11.98797
20.75813	4937.688	9.893292
20.81223	4937.4	15.9282
20.86634	4924.28	12.68487
20.92045	4924.502	7.668417
20.97456	4922.694	12.60795
21.02867	4922.205	13.29201
21.08278	4916.836	10.68748
21.13688	4908.082	8.260432
21.19099	4910.04	6.280704
21.2451	4905.772	12.64827
21.29921	4902.123	14.53203
21.35332	4897.389	18.35324
21.40742	4889.396	13.28653
21.46153	4893.384	10.60579
21.51564	4884.602	8.153008
21.56975	4883.98	14.16158
21.62386	4878.989	16.00451
21.67797	4874.067	17.02179
21.73207	4869.259	15.49278
21.78618	4871.783	16.88146
21.84029	4864.597	18.11155
21.8944	4865.387	20.22553
21.94851	4858.09	20.33337
22.00262	4851.471	16.75649
22.05672	4852.157	15.47852
22.11083	4844.178	9.149506
22.16494	4835.818	15.70293
22.21905	4836.941	19.22282
22.27316	4832.695	17.99851
22.32726	4827.449	18.0348
22.38137	4826.101	8.638786
22.43548	4821.167	14.64326
22.48959	4815.979	8.727319
22.5437	4812.479	9.054987
22.59781	4816.487	10.87314
22.65191	4815.107	12.47411
22.70602	4804.313	5.310087
22.76013	4802.777	13.5565
22.81424	4802.238	15.37762
22.86835	4798.281	12.93706
22.92245	4790.188	13.29707
22.97656	4785.133	12.4319
23.03067	4787.333	10.14505
23.08478	4781.277	13.57275
23.13889	4780.792	17.21527
23.193	4777.554	18.51565
23.2471	4769.313	13.9356
23.30121	4764.636	15.18132
23.35532	4760.527	12.30423
23.40943	4759.02	12.49192
23.46354	4749.074	8.592096
23.51765	4750.242	11.81046
23.57175	4751.79	5.786933
23.62586	4746.076	11.94079
23.67997	4741.286	9.573478
23.73408	4736.616	10.7972
23.78819	4738	11.96626
23.84229	4731.954	12.80633
23.8964	4719.798	11.64772
23.95051	4721.533	8.032722
24.00462	4713.349	15.32152
24.05873	4712.925	16.74571
24.11284	4710.752	9.834297
24.16694	4706.974	12.57628
24.22105	4703.646	19.67561
24.27516	4703.316	20.92633
24.32927	4696.13	15.41776
24.38338	4692.827	12.47403
24.43748	4687.627	10.65247
24.49159	4686.192	10.44249
24.5457	4685.973	12.54271
24.59981	4678.281	12.55594
24.65392	4672.896	10.13268
24.70803	4668.268	6.530789
24.76213	4665.104	6.939038
24.81624	4666.584	16.15357
24.87035	4654.353	20.72713
24.92446	4656.378	13.06278
24.97857	4652.143	16.84181
25.03268	4651.808	13.72972
25.08678	4649.8	13.75977
25.14089	4643.053	8.535839
25.195	4635.871	8.070683
25.24911	4636.892	13.32835
25.30322	4635.713	16.90356
25.35732	4626.654	18.51875
25.41143	4626.01	15.66434
25.46554	4619.276	20.21657
25.51965	4615.098	21.24227
25.57376	4613.438	12.53102
25.62787	4613.33	13.6346
25.68197	4610.568	13.67848
25.73608	4604.384	15.7355
25.79019	4602.103	14.22862
25.8443	4595.388	18.14188
25.89841	4595.201	15.68883
25.95251	4591.436	16.29251
26.00662	4584.189	15.85312
26.06073	4582.296	13.03437
26.11484	4577.684	13.16416
26.16895	4575.947	3.180676
26.22306	4572.681	12.84976
26.27716	4571.559	6.856137
26.33127	4563.93	6.994788
26.38538	4562.096	9.887912
26.43949	4563.464	8.084026
26.4936	4556.872	12.83996
26.5477	4548.525	7.540632
26.60181	4550.901	14.40928
26.65592	4549.265	14.7822
26.71003	4544.054	15.5816
26.76414	4537.613	10.48327
26.81825	4534.605	13.92705
26.87235	4525.708	18.96581
26.92646	4522.966	18.70084
26.98057	4517.898	16.02097
27.03468	4513.962	13.41153
27.08879	4513.842	17.78196
27.1429	4509.38	13.88141
27.197	4506.774	9.310517
27.25111	4502.588	12.65275
27.30522	4508.456	13.05295
27.35933	4503.875	11.11786
27.41344	4491.445	13.81298
27.46754	4492.489	9.750298
27.52165	4488.92	13.17434
27.57576	4483.571	9.675903
27.62987	4484.702	19.47676
27.68398	4482.174	18.89653
27.73809	4478.556	15.4211
27.79219	4475.552	18.60431
27.8463	4467.931	7.587699
27.90041	4466.61	13.31813
27.95452	4459.707	14.55437
28.00863	4457.167	12.22376
28.06273	4456.424	14.4222
28.11684	4449.446	14.59641
28.17095	4445.438	16.15831
28.22506	4442.456	10.50879
28.27917	4439.559	11.06386
28.33328	4435.434	7.531579
28.38738	4427.149	15.5202
28.44149	4427.104	11.59756
28.4956	4428.031	11.57025
28.54971	4426.788	17.99086
28.60382	4421.151	16.4551
28.65793	4417.47	14.60217
28.71203	4416.522	12.70956
28.76614	4413.849	12.45058
28.82025	4409.5	12.49614
28.87436	4400.151	13.97587
28.92847	4399.151	17.82828
28.98257	4394.685	18.23028
29.03668	4392.444	17.89468
29.09079	4391.236	19.05675
29.1449	4391.486	14.34892
29.19901	4385.563	15.38308
29.25312	4379.018	14.55314
29.30722	4373.727	4.405615
29.36133	4364.17	6.800152
29.41544	4368.195	12.90717
29.46955	4364.9	12.44965
29.52366	4363.404	13.19239
29.57776	4360.131	11.41338
29.63187	4355.491	8.80514
29.68598	4353.905	13.46712
29.74009	4347.929	14.42189
29.7942	4343.889	19.47727
29.84831	4344.085	10.14855
29.90241	4341.508	10.10585
29.95652	4336.172	15.41039
30.01063	4335.964	9.802692
30.06474	4328.285	12.55638
30.11885	4327.188	12.93505
30.17296	4325.714	7.469057
30.22706	4320.85	12.23314
30.28117	4316.531	18.21438
30.33528	4311.364	17.59596
30.38939	4307.573	10.81094
30.4435	4303.848	13.41259
30.4976	4299.549	10.24821
30.55171	4297.186	14.75686
30.60582	4292.729	10.0303
30.65993	4287.703	9.519589
30.71404	4285.479	8.27314
30.76815	4285.004	11.16216
30.82225	4284.044	12.97679
30.87636	4281.384	17.36478
30.93047	4276.608	8.518187
30.98458	4276.753	12.5944
31.03869	4272.957	13.15234
31.09279	4267.745	11.94103
31.1469	4258.38	17.06185
31.20101	4257.19	17.39863
31.25512	4258.62	13.20641
31.30923	4254.866	9.664317
31.36334	4242.38	11.2077
31.41744	4243.125	13.00953
31.47155	4235.804	12.76491
31.52566	4233.691	14.6575
31.57977	4231.65	11.6567
31.63388	4230.342	17.54135
31.68799	4224.248	16.48617
31.74209	4224.163	13.12837
31.7962	4226.972	18.85614
31.85031	4222.572	9.831828
31.90442	4211.658	17.07508
31.95853	4209.798	18.39831
32.01263	4205.409	10.93196
32.06674	4207.064	13.35236
32.12085	4203.236	18.61796
32.17496	4199.737	17.68487
32.22907	4195.176	15.64505
32.28318	4191.79	10.38356
32.33728	4189.378	10.07848
32.39139	4188.221	16.83816
32.4455	4180.827	14.54203
32.49961	4177.215	17.15907
32.55372	4179.813	19.41557
32.60783	4171.377	16.46606
32.66193	4165.736	19.9012
32.71604	4166.558	13.72606
32.77015	4159.744	14.05101
32.82426	4158.347	12.91608
32.87836	4158.955	12.45499
32.93248	4155.977	7.531916
32.98658	4149.66	8.143288
33.04069	4146.178	17.1871
33.0948	4146.557	21.2337
33.14891	4137.934	9.263069
33.20301	4138.557	13.99022
33.25712	4133.43	13.19763
33.31123	4129.601	10.31055
33.36534	4124.429	13.11405
33.41945	4124.701	8.245084
33.47356	4121.163	10.6632
33.52766	4120.558	10.69137
33.58177	4116.814	5.269057
33.63588	4115.072	10.18137
33.68999	4102.045	10.56468
33.7441	4100.246	13.87616
33.79821	4102.381	16.49754
33.85231	4100.145	19.62243
33.90642	4088.213	7.594183
33.96053	4088.652	5.889622
34.01464	4085.957	6.518868
34.06875	4083.008	4.781675
34.12286	4078.393	10.91127
34.17696	4075.299	6.631841
34.23107	4077.264	12.53228
34.28518	4072.523	12.0903
34.33929	4065.954	17.81054
34.39339	4067.691	15.29574
34.44751	4057.275	8.912694
34.50161	4056.643	9.429208
34.55572	4057.455	15.19571
34.60983	4050.401	11.46698
34.66394	4045.637	8.848646
34.71804	4047.741	14.67817
34.77215	4041.472	10.94926
34.82626	4039.886	8.235526
34.88037	4030.399	18.60085
34.93448	4027.308	15.03628
34.98859	4029.832	11.37957
35.04269	4026.57	14.65212
35.0968	4027.115	18.97055
35.15091	4021.578	14.94656
35.20502	4022.199	8.265079
35.25913	4018.727	6.796253
35.31324	4015.081	15.79884
35.36734	4011.941	13.31436
35.42145	3999.676	17.62422
35.47556	4000.061	16.23531
35.52967	3997.662	11.91025
35.58378	3995.787	15.22141
35.63789	3984.652	8.372195
35.69199	3988.981	13.39509
35.7461	3984.454	11.68525
35.80021	3982.274	12.49514
35.85432	3976.057	18.36368
35.90842	3969.957	16.02334
35.96254	3969.773	8.399674
36.01664	3969.7	11.63003
36.07075	3964.309	12.47829
36.12486	3961.031	11.06116
36.17897	3959.655	14.98834
36.23307	3957.973	14.38535
36.28718	3952.305	10.42176
36.34129	3949.448	9.019856
36.3954	3947.042	8.425462
36.44951	3943.67	11.46847
36.50362	3940.214	14.56543
36.55772	3936.373	12.42389
36.61183	3933.339	11.09415
36.66594	3932.057	14.026
36.72005	3931.025	9.287077
36.77416	3928.06	12.31761
36.82827	3924.223	14.84474
36.88237	3922.32	9.922651
36.93648	3919.451	16.14727
36.99059	3914.119	10.0857
37.0447	3912.048	15.06533
37.09881	3906.971	5.223098
37.15292	3906.972	12.00946
37.20702	3900.186	5.896936
37.26113	3898.295	10.93615
37.31524	3891.292	13.88579
37.36935	3890.856	13.80177
37.42345	3886.982	12.11072
37.47757	3882.876	13.27463
37.53167	3878.619	10.92993
37.58578	3874.908	11.73845
37.63989	3878.391	12.18445
37.694	3876.859	14.47879
37.7481	3873.921	8.344244
37.80221	3873.834	11.06168
37.85632	3862.701	18.16142
37.91043	3860.137	15.97942
37.96454	3856.559	12.52862
38.01865	3852.48	11.41274
38.07275	3848.728	6.97091
38.12686	3850.946	12.18111
38.18097	3845.351	7.338949
38.23508	3845.892	9.897005
38.28919	3835.609	17.9511
38.3433	3835.68	16.45663
38.3974	3833.108	12.53684
38.45151	3831.292	13.33128
38.50562	3824.271	12.41209
38.55973	3821.863	13.22955
38.61384	3823.701	14.98749
38.66795	3821.55	8.946149
38.72205	3808.821	27.33969
38.77616	3808.86	20.99696
38.83027	3804.576	15.04984
38.88438	3804.8	11.31057
38.93848	3799.085	15.55126
38.9926	3799.484	8.735741
39.0467	3793.598	10.74988
39.10081	3790.01	10.58778
39.15492	3785.585	12.61872
39.20903	3785.813	14.16221
39.26313	3785.152	15.22288
39.31724	3783.058	20.54797
39.37135	3770.89	11.5442
39.42546	3772.376	13.7668
39.47957	3769.381	19.15666
39.53368	3769.498	15.33768
39.58778	3762.243	11.48243
39.64189	3762.959	15.25039
39.696	3763.063	14.23631
39.75011	3757.23	14.09876
39.80422	3751.412	8.535157
39.85833	3748.272	12.57783
39.91243	3747.667	13.46127
39.96654	3740.56	12.07199
40.02065	3733.414	17.50009
40.07476	3735.363	15.50947
40.12887	3736.552	7.894485
40.18298	3733.115	12.31215
40.23708	3739.198	12.92643
40.29119	3727.153	6.227609
40.3453	3729.222	6.849398
40.39941	3720.017	9.896407
40.45351	3721.581	12.64541
40.50763	3713.895	14.95342
40.56173	3708.357	15.96028
40.61584	3703.636	15.7287
40.66995	3703.658	14.08818
40.72406	3696.939	9.333166
40.77816	3699.229	12.68465
40.83227	3692.707	7.79439
40.88638	3691.926	8.809143
40.94049	3687.375	17.11092
40.9946	3684.962	18.2072
41.04871	3680.2	10.83491
41.10281	3679.85	11.18696
41.15692	3675.813	9.584661
41.21103	3678.744	10.13075
41.26514	3676.705	11.21142
41.31925	3673.097	12.21304
41.37336	3667.304	12.17721
41.42746	3666.382	7.315426
41.48157	3661.761	16.73342
41.53568	3659.048	16.12469
41.58979	3654.863	13.98975
41.64389	3654.288	11.12824
41.69801	3646.147	15.09159
41.75211	3644.752	16.6394
41.80622	3641.832	18.41295
41.86033	3638.502	19.2444
41.91444	3629.854	10.39086
41.96854	3633.765	12.35641
42.02265	3631.444	15.40293
42.07676	3629.179	12.53691
42.13087	3623.415	25.62752
42.18498	3621.851	18.31093
42.23909	3623.549	14.56327
42.29319	3617.266	12.71044
42.3473	3611.52	9.421391
42.40141	3608.044	11.48926
42.45552	3606.504	9.331016
42.50963	3607.774	13.64455
42.56374	3603.351	11.83853
42.61784	3601.07	13.67009
42.67195	3594.65	17.94147
42.72606	3593.104	17.37369
42.78017	3590.58	14.80836
42.83428	3581.549	14.01696
42.88839	3579.363	10.97755
42.94249	3578.524	7.339857
42.9966	3578.05	9.70779
43.05071	3575.181	11.96027
43.10482	3570.376	10.7449
43.15892	3568.135	16.09664
43.21304	3567.703	14.36881
43.26714	3568.232	14.88834
43.32125	3567.645	21.02106
43.37536	3557.866	9.837264
43.42947	3553.914	11.258
43.48357	3550.658	7.798698
43.53768	3552.74	7.128217
43.59179	3542.882	12.49885
43.6459	3540.741	11.63178
43.70001	3541.09	14.25956
43.75412	3540.383	15.41297
43.80822	3535.01	14.59009
43.86233	3532.485	16.60696
43.91644	3529.208	14.81841
43.97055	3525.282	15.82072
44.02466	3526.149	13.51982
44.07877	3521.72	15.30806
44.13287	3513.42	13.86845
44.18698	3510.606	14.16343
44.24109	3511.329	10.3151
44.2952	3510.81	13.18272
44.34931	3501.823	8.393782
44.40342	3505.168	12.96986
44.45752	3493.8	12.95085
44.51163	3492.71	11.35184
44.56574	3492.905	12.08345
44.61985	3490.035	13.48314
44.67395	3486.884	8.344134
44.72807	3489.419	11.28854
44.78217	3479.566	17.95192
44.83628	3480.861	15.13946
44.89039	3477.064	21.01131
44.9445	3476.051	17.04038
44.9986	3465.045	15.0908
45.05271	3461.791	16.3609
45.10682	3465.866	11.93227
45.16093	3465.047	16.43899
45.21504	3462.07	16.38893
45.26915	3460.245	19.16322
45.32325	3446.671	11.63482
45.37736	3452.781	15.73241
45.43147	3448.004	13.5387
45.48558	3446.201	11.91594
45.53969	3443.892	17.57247
45.5938	3439.781	13.99223
45.6479	3437.381	18.75357
45.70201	3435.159	16.81581
45.75612	3434.979	13.7228
45.81023	3431.315	11.66587
45.86434	3423.73	12.97414
45.91845	3426.059	12.40129
45.97255	3418.338	16.14659
46.02666	3418.723	16.89536
46.08077	3415.112	8.794295
46.13488	3415.398	7.596231
46.18898	3408.789	9.451255
46.2431	3407.917	8.145224
46.2972	3401.827	16.99558
46.35131	3400.253	17.95967
46.40542	3393.466	9.358363
46.45953	3395.976	15.78311
46.51363	3394.396	12.63129
46.56774	3392.611	13.14124
46.62185	3389.226	16.24438
46.67596	3386.392	15.68172
46.73007	3388.655	15.29098
46.78418	3379.992	13.61492
46.83828	3371.662	20.9499
46.89239	3372.139	18.21507
46.9465	3371.868	17.47065
47.00061	3365.323	13.22978
47.05472	3360.472	13.10305
47.10883	3361.497	16.42871
47.16293	3354.385	17.77325
47.21704	3358.141	13.02551
47.27115	3353.688	14.6313
47.32526	3355.842	9.6188
47.37937	3345.86	12.05496
47.43348	3347.98	10.65678
47.48758	3345.823	7.284208
47.54169	3341.556	5.199806
47.5958	3336.463	10.74395
47.64991	3335.326	10.1335
47.70401	3334.363	10.72908
47.75813	3331.388	15.821
47.81223	3325.051	18.18495
47.86634	3320.818	18.73902
47.92045	3321.569	17.1006
47.97456	3320.356	14.55492
48.02866	3320.191	13.48036
48.08277	3310.251	12.98652
48.13688	3305.713	14.35139
48.19099	3305.063	14.93819
48.2451	3306.703	15.80225
48.29921	3301.648	12.49671
48.35331	3296.949	11.21445
48.40742	3297.686	16.2592
48.46153	3291.013	19.88279
48.51564	3293.46	12.90066
48.56975	3294.896	15.86774
48.62386	3288.413	15.58527
48.67796	3290.507	17.80656
48.73207	3279.632	15.45567
48.78618	3279.791	16.86849
48.84029	3279.4	17.05601
48.8944	3276.516	16.12742
48.94851	3268.228	12.32174
49.00261	3271.597	11.23008
49.05672	3263.104	18.28533
49.11083	3263.075	18.01284
49.16494	3256.854	16.06855
49.21904	3257.528	13.92006
49.27316	3251.382	16.12725
49.32726	3248.612	18.11003
49.38137	3245.972	19.55248
49.43548	3241.376	14.48599
49.48959	3245.457	10.29665
49.54369	3244.731	8.999417
49.5978	3238.288	13.69378
49.65191	3235.367	16.99091
49.70602	3230.801	12.25025
49.76013	3230.745	10.36964
49.81424	3222.803	13.28358
49.86834	3222.446	14.45332
49.92245	3222.14	13.7458
49.97656	3220.649	14.45202
50.03067	3218.505	15.70007
50.08478	3218.257	16.27849
50.13889	3206.606	17.08656
50.19299	3208.14	20.15717
50.2471	3205.62	13.84463
50.30121	3202.43	13.26392
50.35532	3204.912	14.00875
50.40943	3206.207	10.10422
50.46354	3192.333	15.46973
50.51764	3193.02	14.32656
50.57175	3189.693	10.42926
50.62586	3188.012	12.12883
50.67997	3183.171	14.65734
50.73407	3183.744	16.9749
50.78819	3180.766	14.12553
50.84229	3178.792	18.3711
50.8964	3176.032	16.70695
50.95051	3177.068	15.15936
51.00462	3165.664	18.16503
51.05872	3168.336	15.79838
51.11283	3165.26	17.98867
51.16694	3163.87	13.43763
51.22105	3159.23	13.7977
51.27516	3155.416	12.82427
51.32927	3151.25	13.76624
51.38337	3148.981	13.39461
51.43748	3144.701	14.62755
51.49159	3144.141	13.63137
51.5457	3140.171	5.043204
51.59981	3138.954	7.62024
51.65392	3134.57	15.0974
51.70802	3135.813	14.07967
51.76213	3127.177	13.19036
51.81624	3127.472	14.66119
51.87035	3126.003	12.30055
51.92446	3122.858	14.40431
51.97857	3121.224	16.48209
52.03267	3121.298	12.35789
52.08678	3119.263	16.50585
52.14089	3116.676	17.99563
52.195	3108.029	15.23388
52.2491	3107.056	11.96276
52.30322	3107.884	10.26365
52.35732	3100.408	15.73525
52.41143	3101.497	21.31497
52.46554	3096.163	9.747713
52.51965	3095.881	12.18017
52.57375	3092.955	13.79776
52.62786	3094.419	15.0144
52.68197	3086.811	13.35188
52.73608	3089.52	14.36321
52.79019	3081.537	13.24765
52.8443	3081.649	12.29844
52.8984	3075.66	13.45554
52.95251	3072.515	13.04304
53.00662	3070.07	14.56693
53.06073	3070.901	14.92378
53.11484	3068.602	19.79132
53.16895	3068.125	19.89138
53.22305	3056.539	14.22831
53.27716	3059.046	14.08573
53.33127	3058.915	12.34912
53.38538	3058.486	12.90963
53.43949	3054.063	16.16526
53.4936	3049.87	16.59611
53.5477	3046.308	9.66267
53.60181	3046.922	12.52759
53.65592	3037.188	17.73474
53.71003	3041.037	18.15202
53.76413	3034.767	18.11574
53.81824	3033.5	15.71724
53.87235	3028.749	12.92044
53.92646	3026.803	17.55799
53.98057	3025.399	16.086
54.03468	3023.808	13.31279
54.08878	3020.552	13.54626
54.14289	3021.018	16.88321
54.197	3020.072	18.10634
54.25111	3012.61	13.66842
54.30522	3011.651	12.03522
54.35933	3010.485	9.928821
54.41343	3006.427	10.90747
54.46754	3003.329	12.47115
54.52165	2998.324	13.56073
54.57576	2998.279	12.88163
54.62987	2997.657	10.68917
54.68398	2995.515	9.848025
54.73808	2995.926	12.58068
54.79219	2990.57	12.14716
54.8463	2990.264	12.56894
54.90041	2986.103	11.56794
54.95452	2986.411	11.92063
55.00863	2979.573	11.17141
55.06273	2976.495	15.72315
55.11684	2971.432	14.88109
55.17095	2978.246	15.94121
55.22506	2970.277	15.01466
55.27916	2970.556	16.01435
55.33327	2962.808	6.384569
55.38738	2964.192	10.63841
55.44149	2958.452	12.01867
55.4956	2954.527	9.918466
55.54971	2953.609	11.57338
55.60381	2955.63	10.85692
55.65792	2949.349	13.46648
55.71203	2948.141	14.56869
55.76614	2944.046	16.53281
55.82025	2945.901	13.34693
55.87436	2936.671	9.870712
55.92846	2937.32	12.30636
55.98257	2937.605	11.50478
56.03668	2935.323	12.94714
56.09079	2930.659	10.29685
56.1449	2929.497	11.10991
56.19901	2927.624	13.64558
56.25311	2926.087	16.20699
56.30722	2917.853	15.98897
56.36133	2917.785	13.39063
56.41544	2912.712	12.51282
56.46955	2911.696	11.9881
56.52365	2912.242	11.62433
56.57776	2908.902	13.19916
56.63187	2906.29	19.75171
56.68598	2901.504	10.49815
56.74009	2900.604	10.55922
56.79419	2898.505	16.39922
56.8483	2895.667	12.36532
56.90241	2893.369	15.6182
56.95652	2894.735	13.3695
57.01063	2890.246	15.1992
57.06474	2889.687	15.75203
57.11884	2886.318	11.06001
57.17295	2885.864	8.207026
57.22706	2880.919	15.72956
57.28117	2877.947	13.147
57.33528	2874.278	10.59116
57.38939	2876.439	12.61806
57.44349	2868.989	16.24918
57.4976	2870.123	12.48379
57.55171	2863.026	8.45043
57.60582	2866.272	11.61788
57.65993	2860.03	13.164
57.71404	2859.384	13.58975
57.76814	2855.943	12.58693
57.82225	2856.85	11.7945
57.87636	2850.752	8.561902
57.93047	2850.053	10.44326
57.98458	2845.932	13.22668
58.03868	2845.403	12.20675
58.09279	2843.428	17.79141
58.1469	2840.323	12.53888
58.20101	2834.221	17.08524
58.25512	2835.672	15.99021
58.30922	2830.409	16.67432
58.36333	2829.78	14.08551
58.41744	2827.811	12.88859
58.47155	2827.79	15.15899
58.52566	2821.633	10.69823
58.57977	2824.612	12.23467
58.63387	2815.564	12.38456
58.68798	2817.2	11.31839
58.74209	2813.104	9.562712
58.7962	2810.268	11.62359
58.85031	2809.948	5.023755
58.90442	2810.355	10.27562
58.95852	2808.583	14.07477
59.01263	2807.081	11.56863
59.06674	2801.61	10.40481
59.12085	2795.975	9.091259
59.17496	2793.271	11.92936
59.22906	2789.399	11.38078
59.28317	2788.652	7.175222
59.33728	2788.496	8.041253
59.39139	2789.375	9.843568
59.4455	2781.804	11.78013
59.49961	2778.014	9.097673
59.55371	2779.379	11.92036
59.60782	2777.63	13.4495
59.66193	2773.097	12.64628
59.71604	2774.506	15.90831
59.77015	2769.018	11.67583
59.82425	2768.213	13.51134
59.87836	2764.636	7.419825
59.93247	2765.953	11.21901
59.98658	2760.634	11.3509
60.04069	2762.223	7.7876
60.0948	2753.916	14.21269
60.1489	2760.93	16.01804
60.20301	2752.029	13.7293
60.25712	2752.55	14.15354
60.31123	2745.104	12.98355
60.36534	2748.661	16.40857
60.41945	2743.199	13.15914
60.47355	2738.603	11.52023
60.52766	2734.351	10.3998
60.58177	2731.622	12.85099
60.63588	2733.646	11.69051
60.68999	2731.331	12.43346
60.74409	2731.571	13.16745
60.7982	2731.409	16.90638
60.85231	2724.851	11.83591
60.90642	2726.826	10.96731
60.96053	2721.756	14.1236
61.01464	2717.537	13.30998
61.06874	2711.75	12.54244
61.12285	2712.245	13.04781
61.17696	2714.118	14.56618
61.23107	2713.303	15.27571
61.28518	2705.403	12.33971
61.33928	2706.982	12.69204
61.39339	2700.904	8.662246
61.4475	2699.948	11.95716
61.50161	2699.599	9.311551
61.55572	2695.464	12.98417
61.60983	2692.038	12.44594
61.66393	2694.034	14.39182
61.71804	2690.052	11.89649
61.77215	2687.56	14.91482
61.82626	2684.601	13.74378
61.88037	2686.269	14.23625
61.93447	2680.046	10.59937
61.98858	2679.064	15.40998
62.04269	2674.787	13.12158
62.0968	2678.213	16.40443
62.15091	2673.585	12.24404
62.20502	2674.655	11.90907
62.25912	2666.382	10.95393
62.31323	2666.283	9.357532
62.36734	2660.709	10.03481
62.42145	2663.836	8.425855
62.47556	2658.746	7.503052
62.52967	2660.617	8.937918
62.58377	2658.208	11.06864
62.63788	2656.637	10.41165
62.69199	2652.634	12.60396
62.7461	2649.079	13.07291
62.80021	2641.673	8.532445
62.85431	2644	8.782139
62.90842	2642.562	12.63127
62.96253	2642.93	13.37357
63.01664	2639.289	13.55064
63.07075	2637.383	14.99839
63.12486	2635.403	13.90127
63.17896	2632.848	12.84897
63.23307	2629.021	15.67303
63.28718	2626.282	13.20838
63.34129	2626.658	10.09351
63.3954	2625.25	11.30585
63.4495	2625.346	8.878578
63.50361	2622.414	10.82913
63.55772	2620.84	10.29835
63.61183	2620.89	12.65302
63.66594	2621.431	9.573863
63.72005	2613.545	14.64722
63.77415	2612.487	17.69909
63.82826	2612.31	11.90994
63.88237	2613.499	12.11048
63.93648	2611.598	12.07996
63.99059	2611.566	17.11534
64.04469	2605.294	9.226987
64.0988	2605.445	13.64096
64.15291	2596.421	12.82032
64.20702	2599.608	17.45209
64.26113	2595.945	15.82629
64.31524	2600.512	16.40969
64.36935	2593.6	13.41235
64.42345	2595.274	13.31221
64.47756	2593.835	13.2112
64.53167	2593.024	7.370514
64.58578	2586.497	16.019
64.63988	2590.24	12.81418
64.69399	2583.605	13.49749
64.7481	2584.813	12.77643
64.80221	2581.456	10.42994
64.85632	2585.337	8.150884
64.91042	2577.097	13.7931
64.96453	2580.126	14.2729
65.01865	2576.017	15.82489
65.07275	2579.564	13.04126
65.12686	2575.673	12.36937
65.18097	2577.786	11.39004
65.23508	2574.296	11.31856
65.28918	2571.255	9.52526
65.34329	2572.014	10.04623
65.3974	2573.151	10.02318
65.45151	2572.823	11.61223
65.50562	2574.997	10.12231
65.55972	2570.57	11.19689
65.61383	2572.582	13.64269
65.66794	2574.584	14.24009
65.72205	2569.117	10.75655
65.77616	2575.267	12.59544
65.83027	2571.334	11.73868
65.88438	2572.467	9.023618
65.93848	2568.78	11.46752
65.99259	2570.481	12.02977
66.0467	2570.612	11.32813
66.10081	2576.008	12.23502
66.15491	2576.333	8.871913
66.20902	2577.882	12.07933
66.26313	2576.465	7.249853
66.31724	2581.644	11.56197
66.37135	2576.334	11.21826
66.42545	2579.535	11.00537
66.47956	2578.058	11.40822
66.53368	2580.183	12.33477
66.58778	2579.14	12.47878
66.64189	2580.113	12.63015
66.696	2582.865	12.27545
66.75011	2588.607	12.59118
66.80421	2588.568	8.447568
66.85832	2595.243	10.10239
66.91243	2595.016	5.062458
66.96654	2601.533	6.636637
67.02065	2597.485	5.798453
67.07475	2603.002	8.202864
67.12886	2603.733	10.9086
67.18297	2605.652	9.632936
67.23708	2609.211	9.806064
67.29119	2614.457	8.320631
67.3453	2617.273	7.685843
67.39941	2625.301	7.696609
67.45351	2631.515	9.385516
67.50762	2634.423	10.52024
67.56173	2640.941	10.70734
67.61584	2640.765	13.08743
67.66994	2646.399	11.07113
67.72405	2651.892	9.601464
67.77816	2657.617	11.28667
67.83227	2665.939	8.635131
67.88638	2673.447	8.555223
67.94048	2678.476	8.604102
67.99459	2687.733	7.850934
68.04871	2692.523	7.366643
68.10281	2706.104	12.86469
68.15692	2705.634	8.383447
68.21103	2715.774	12.10196
68.26514	2723.689	9.834779
68.31924	2733.754	9.527175
68.37335	2741.66	9.002997
68.42746	2750.948	7.743693
68.48157	2759.93	10.53438
68.53568	2769.366	7.932368
68.58978	2774.462	6.947662
68.64389	2788.265	6.615748
68.698	2797.332	5.720646
68.75211	2811.264	5.909329
68.80622	2819.285	7.567728
68.86033	2833.161	8.063624
68.91444	2842.58	8.017767
68.96854	2860.564	5.666585
69.02265	2870.637	5.891489
69.07676	2887.779	2.157161
69.13087	2899.026	8.390914
69.18497	2915.341	10.19442
69.23908	2933.117	8.606598
69.29319	2949.359	7.816882
69.3473	2965.618	9.316322
69.40141	2975.849	11.9537
69.45551	2996.518	14.59153
69.50962	3013.091	7.630912
69.56374	3031.463	7.648289
69.61784	3047.551	7.201489
69.67195	3070.655	6.649304
69.72606	3086.201	3.448542
69.78017	3108.203	4.881419
69.83427	3123.495	10.90768
69.88838	3142.373	10.84414
69.94249	3163.922	5.634953
69.9966	3192.994	6.163868
70.0507	3211.494	6.636739
70.10481	3239.359	6.901496
70.15892	3253.284	6.267372
70.21303	3281.158	8.224096
70.26714	3303.602	8.836473
70.32125	3330.126	4.712001
70.37536	3354.576	6.079044
70.42947	3381.975	2.676417
70.48357	3408.101	5.25745
70.53768	3436.684	6.695502
70.59179	3458.278	4.614617
70.6459	3491.644	6.038095
70.7	3515.355	3.042393
70.75411	3545.097	5.854682
70.80822	3574.893	5.772066
70.86233	3603.494	7.013693
70.91644	3634.665	11.72129
70.97054	3663.985	10.02549
71.02465	3689.855	9.773063
71.07877	3727.798	13.85532
71.13287	3761.174	11.65627
71.18698	3792.049	9.31696
71.24109	3823.25	10.3154
71.2952	3856.462	12.28361
71.3493	3893.923	8.70511
71.40341	3923.103	12.1196
71.45752	3957.801	9.044859
71.51163	3995.251	13.84366
71.56573	4029.32	12.01175
71.61984	4070.427	17.12117
71.67395	4107.298	19.83722
71.72806	4141.518	17.77308
71.78217	4179.419	15.68515
71.83628	4222.268	17.28257
71.89039	4267.806	19.36341
71.9445	4301.742	22.08962
71.9986	4342.916	21.61376
72.05271	4383.741	13.93501
72.10682	4427.315	13.43556
72.16093	4465.267	13.52009
72.21503	4515.624	14.99174
72.26914	4547.676	14.88576
72.32325	4591.103	19.80329
72.37736	4629.899	15.154
72.43147	4674.872	8.841478
72.48557	4705.113	16.17713
72.53968	4746.274	13.57211
72.5938	4769.864	13.91492
72.6479	4811.238	10.18078
72.70201	4844.851	18.25968
72.75612	4876.661	19.53963
72.81023	4911.508	20.14421
72.86433	4939.078	20.50299
72.91844	4962.407	17.16811
72.97255	4997.202	15.70036
73.02666	5031.689	15.14995
73.08076	5055.611	14.02718
73.13487	5086.557	11.75237
73.18898	5100.264	11.20974
73.24309	5128.683	11.66344
73.2972	5139.804	15.03884
73.35131	5164.424	13.1299
73.40542	5179.786	18.87964
73.45953	5206.292	17.0638
73.51363	5218.277	13.55451
73.56774	5238.252	16.45844
73.62185	5243.923	17.69597
73.67596	5268.912	23.59058
73.73006	5274.893	21.40208
73.78417	5294.5	18.33022
73.83828	5299.357	19.40924
73.89239	5322.161	22.14684
73.9465	5315.555	18.1445
74.0006	5329.382	16.35651
74.05471	5341.133	16.68671
74.10882	5354.002	12.61701
74.16293	5360.888	15.14316
74.21704	5374.044	17.04762
74.27115	5372.71	18.85277
74.32526	5389.672	17.464
74.37936	5390.707	12.79895
74.43347	5406.764	16.20258
74.48758	5400.813	9.055609
74.54169	5417.08	11.6579
74.59579	5411.902	11.89361
74.6499	5423.135	14.6027
74.70401	5428.788	24.02815
74.75812	5441.098	18.03841
74.81223	5445.667	15.16541
74.86633	5460.198	12.31031
74.92045	5462.686	8.164246
74.97456	5464.143	7.333172
75.02866	5480.009	6.978833
75.08277	5478.257	5.469474
75.13688	5492.09	6.618238
75.19099	5488.21	9.262043
75.24509	5501.6	8.738246
75.2992	5498.345	10.04765
75.35331	5511.91	16.48789
75.40742	5507.506	14.08328
75.46152	5514.042	21.72363
75.51563	5506.228	16.58361
75.56974	5514.04	17.18898
75.62385	5524.12	14.81013
75.67796	5539.62	21.01941
75.73207	5524.225	9.951969
75.78618	5536.038	10.50611
75.84029	5533.097	13.7244
75.89439	5546.032	16.00866
75.9485	5536.437	19.139
76.00261	5546.404	25.86967
76.05672	5539.384	18.51536
76.11082	5553.382	15.13378
76.16493	5554.198	14.46915
76.21904	5567.852	16.50143
76.27315	5557.285	13.26494
76.32726	5570.342	18.52884
76.38136	5566.813	11.52897
76.43548	5575.98	15.95247
76.48959	5570.783	8.992196
76.54369	5586.4	10.86234
76.5978	5580.199	12.97898
76.65191	5585.077	12.98491
76.70602	5589.2	13.53988
76.76012	5591.718	14.80426
76.81423	5600.256	15.71395
76.86834	5597.573	17.26506
76.92245	5607.372	19.22174
76.97655	5600.262	11.97813
77.03066	5616.064	13.17292
77.08477	5603.367	10.98664
77.13888	5616.799	15.74565
77.19299	5609.171	17.42555
77.2471	5618.562	16.70993
77.30121	5611.292	17.70014
77.35532	5616.577	14.59366
77.40942	5621.845	14.55731
77.46353	5623.374	16.28114
77.51764	5614.041	18.66721
77.57175	5622.009	17.53793
77.62585	5619.349	12.51867
77.67996	5627.795	13.16575
77.73407	5614.303	20.17204
77.78818	5633.702	18.37265
77.84229	5622.89	19.46715
77.89639	5631.9	19.8892
77.95051	5622.838	20.41302
78.00462	5629.105	13.30996
78.05872	5606.203	15.12014
78.11283	5617.464	14.06447
78.16694	5611.482	17.2124
78.22105	5620.585	19.01279
78.27515	5607.015	10.06201
78.32926	5616.782	19.44423
78.38337	5605.823	20.83903
78.43748	5609.107	26.1884
78.49158	5593.829	27.52598
78.54569	5601.981	22.49607
78.5998	5599.913	19.46633
78.65391	5603.239	17.36135
78.70802	5609.594	19.02941
78.76213	5600.4	24.53402
78.81624	5599.556	24.24989
78.87035	5596.39	16.43502
78.92445	5603.277	16.09178
78.97856	5593.408	13.56833
79.03267	5599.911	13.61879
79.08678	5587	7.784476
79.14088	5600.19	15.20756
79.19499	5589.658	11.85914
79.2491	5599.423	13.07584
79.30321	5584.712	12.09989
79.35732	5593.169	16.3299
79.41142	5586.351	4.50543
79.46554	5602.685	9.215432
79.51965	5584.613	10.33159
79.57375	5591.755	11.90285
79.62786	5591.718	5.353909
79.68197	5604.362	8.203206
79.73608	5600.606	10.39412
79.79018	5606.549	10.95112
79.84429	5595.626	12.40538
79.8984	5610.246	18.43146
79.95251	5596.55	14.65981
80.00661	5610.544	8.022376
80.06072	5596.005	13.04285
80.11483	5612.604	9.082555
80.16894	5603.494	2.918845
80.22305	5619.375	10.47547
80.27716	5605.662	6.598763
80.33127	5616.708	10.69171
80.38538	5604.918	17.55263
80.43948	5613.922	19.19629
80.49359	5598.3	11.81462
80.5477	5610.675	14.08971
80.60181	5608.174	10.56528
80.65591	5620.444	9.13909
80.71002	5612.68	6.463699
80.76413	5620.441	8.467155
80.81824	5605.112	11.17859
80.87234	5619.68	7.483703
80.92645	5619.208	5.877892
80.98057	5629.656	8.045076
81.03468	5612.124	10.12508
81.08878	5626.943	9.458413
81.14289	5614.617	12.60838
81.197	5631.52	11.32027
81.25111	5623	10.30369
81.30521	5629.536	16.53188
81.35932	5622.873	24.26552
81.41343	5636.626	17.36971
81.46754	5640.968	11.88822
81.52164	5643.067	16.74774
81.57575	5643.062	18.75049
81.62986	5646.944	16.80161
81.68397	5651.353	17.51209
81.73808	5645.268	17.07831
81.79219	5651.814	12.76335
81.8463	5649.257	13.88114
81.90041	5656.892	13.53015
81.95451	5647.929	18.41536
82.00862	5660.31	21.19211
82.06273	5651.555	19.22761
82.11684	5667.542	20.80202
82.17094	5649.734	19.44688
82.22505	5660.993	22.45954
82.27916	5651.283	21.15926
82.33327	5661.691	23.29146
82.38737	5655.389	20.70031
82.44148	5663.733	22.49191
82.4956	5659.487	19.13889
82.54971	5670.314	19.54939
82.60381	5668.828	11.69326
82.65792	5682.731	14.58318
82.71203	5668.082	17.16427
82.76614	5676.398	14.66811
82.82024	5675.256	16.77244
82.87435	5689.538	17.57022
82.92846	5668.506	14.35093
82.98257	5679.937	15.80332
83.03667	5671.513	22.39141
83.09078	5684.066	22.24646
83.14489	5671.401	11.34425
83.199	5682.321	10.54331
83.25311	5668.446	13.92576
83.30722	5682.45	13.18972
83.36133	5676.695	16.3732
83.41544	5691.313	22.12235
83.46954	5679.315	18.88941
83.52365	5691.994	16.6867
83.57776	5679.018	12.02142
83.63187	5691.146	15.42507
83.68597	5681.862	14.73781
83.74008	5696.089	18.5709
83.79419	5686.017	14.38429
83.8483	5691.762	15.81542
83.9024	5684.039	15.62888
83.95651	5696.506	15.36567
84.01063	5687.619	14.98213
84.06474	5696.302	12.86088
84.11884	5692.896	10.81911
84.17295	5698.451	15.50357
84.22706	5689.008	19.08307
84.28117	5697.407	18.23836
84.33527	5678.181	12.99733
84.38938	5691.894	19.43447
84.44349	5682.155	13.5333
84.4976	5692.928	21.72259
84.5517	5677.446	20.19247
84.60581	5690.393	22.00497
84.65992	5670.191	14.58559
84.71403	5681.253	11.21213
84.76814	5669.567	19.6798
84.82225	5681.423	16.08326
84.87636	5667.109	12.27394
84.93047	5686.417	19.31312
84.98457	5670.781	17.92452
85.03868	5681.688	17.74803
85.09279	5668.004	12.21674
85.1469	5674.767	14.89138
85.201	5654.816	11.13979
85.25511	5669.313	11.83036
85.30922	5651.433	11.86892
85.36333	5661.413	19.42057
85.41743	5650.673	16.75571
85.47154	5656.653	16.51611
85.52566	5650.239	18.75166
85.57977	5652.669	21.09906
85.63387	5641.467	16.07503
85.68798	5639.659	14.25285
85.74209	5631.147	12.25004
85.7962	5639.575	13.62769
85.8503	5637.026	16.21161
85.90441	5634.796	13.97975
85.95852	5628.543	13.09699
86.01263	5621	17.59456
86.06673	5621.208	18.52133
86.12084	5610.66	21.00541
86.17495	5614.597	14.33218
86.22906	5604.71	16.94375
86.28317	5609.364	14.50433
86.33728	5599.69	14.10059
86.39139	5604.319	15.29746
86.4455	5590.129	12.87672
86.4996	5599.761	9.974889
86.55371	5584.761	11.10137
86.60782	5595.413	14.20586
86.66193	5573.688	11.38477
86.71603	5582.667	20.68659
86.77014	5562.753	18.42131
86.82425	5567.141	23.22522
86.87836	5555.604	19.67177
86.93246	5566.106	19.68996
86.98657	5552.313	20.4537
87.04069	5550.223	20.35901
87.0948	5536.377	16.47342
87.1489	5544.333	20.36282
87.20301	5520.26	13.75839
87.25712	5527.845	18.723
87.31123	5509.533	15.67242
87.36533	5527.137	15.9373
87.41944	5504.005	20.12525
87.47355	5516.048	26.28524
87.52766	5502.044	19.33159
87.58176	5506.048	23.99632
87.63587	5489.863	16.20531
87.68998	5494.85	20.51435
87.74409	5482.875	18.86425
87.7982	5484.372	24.44364
87.85231	5460.043	20.18211
87.90642	5469.574	19.32673
87.96053	5456.335	22.18512
88.01463	5468.323	16.87317
88.06874	5447.306	17.18417
88.12285	5452.922	20.96938
88.17696	5433.024	17.50862
88.23106	5439.424	19.96459
88.28517	5420.613	15.66272
88.33928	5426.785	20.2608
88.39339	5412.557	20.35351
88.44749	5419.189	20.98534
88.5016	5399.6	22.48518
88.55572	5402.77	22.55178
88.60983	5387.544	14.20995
88.66393	5395.088	18.39806
88.71804	5370.687	18.79225
88.77215	5375.164	19.56335
88.82626	5360.033	16.78993
88.88036	5369.578	23.35514
88.93447	5351.535	22.50624
88.98858	5355.846	28.24608
89.04269	5346.133	16.85918
89.09679	5345.197	21.43281
89.1509	5328.46	19.11662
89.20501	5330.988	18.71827
89.25912	5319.312	15.00619
89.31323	5324.113	17.50387
89.36734	5313.861	15.31998
89.42145	5311.499	16.41151
89.47556	5289.571	19.29417
89.52966	5297.263	20.01919
89.58377	5283.395	16.2994
89.63788	5289.193	19.63201
89.69199	5276.406	19.16094
89.74609	5277.639	20.82932
89.8002	5259.95	20.72477
89.85431	5262.17	20.06532
89.90842	5256.609	20.35592
89.96252	5252.025	17.35438
90.01663	5243.216	21.1712
90.07075	5247.656	19.53656
90.12486	5240.089	17.26426
90.17896	5230.989	17.57401
90.23307	5223.988	18.44119
90.28718	5216.302	14.64337
90.34129	5211.833	9.73099
90.39539	5201.512	19.22608
90.4495	5202.983	17.62906
90.50361	5190.362	11.3121
90.55772	5203.135	14.30642
90.61182	5173.057	17.85721
90.66593	5179.03	23.08024
90.72004	5165.839	18.71629
90.77415	5174.304	23.92308
90.82826	5153.788	23.7081
90.88237	5164.752	25.12028
90.93648	5141.429	20.78975
90.99059	5147.166	24.96732
91.04469	5124.831	17.90206
91.0988	5130.836	19.93002
91.15291	5111.571	24.14501
91.20702	5120.906	26.3708
91.26112	5099.557	10.82913
91.31523	5108.375	14.83181
91.36934	5093.007	23.87572
91.42345	5096.759	25.41781
91.47755	5082.367	20.90902
91.53166	5077.95	21.28194
91.58578	5063.262	21.76937
91.63988	5068.046	23.54162
91.69399	5048.387	21.53946
91.7481	5055.306	26.17143
91.80221	5039.183	16.09585
91.85632	5047.146	22.22306
91.91042	5033.473	16.15797
91.96453	5046.279	15.50553
92.01864	5024.62	16.3905
92.07275	5030.535	19.18469
92.12685	5005.902	23.32941
92.18096	5009.191	23.02437
92.23507	4986.695	22.6076
92.28918	4996.3	26.84673
92.34329	4978.824	21.32227
92.3974	4986.791	21.95522
92.45151	4966.65	18.94844
92.50562	4970.355	21.91113
92.55972	4950.283	20.75751
92.61383	4958.224	21.33951
92.66794	4937.957	11.05506
92.72205	4948.654	18.04316
92.77615	4920.291	19.06571
92.83026	4932.002	22.30263
92.88437	4909.214	18.04206
92.93848	4917.542	23.30237
92.99258	4897.887	20.25744
93.04669	4907.544	24.12488
93.10081	4887.152	16.36155
93.15491	4889.363	21.82264
93.20902	4876.29	19.30692
93.26313	4876.794	20.40951
93.31724	4865.75	19.22507
93.37135	4869.876	23.05241
93.42545	4846.206	23.75524
93.47956	4852.512	24.7577
93.53367	4832.819	23.56979
93.58778	4846.904	20.81169
93.64188	4821.294	24.76917
93.69599	4830.828	26.14013
93.7501	4809.37	31.84558
93.80421	4816.984	27.49565
93.85832	4795.644	20.47776
93.91243	4803.303	26.005
93.96654	4786.797	23.55609
94.02065	4786.248	24.41039
94.07475	4760.7	26.447
94.12886	4767.687	26.05922
94.18297	4751.351	22.86076
94.23708	4763.863	25.27561
94.29118	4750.588	22.44017
94.34529	4754.357	20.38929
94.3994	4740.807	28.1298
94.45351	4752.576	30.1798
94.50761	4733.598	26.16813
94.56172	4718.705	20.87842
94.61584	4723.728	17.45312
94.66994	4717.427	22.12111
94.72405	4703.123	24.79776
94.77816	4696.42	25.37893
94.83227	4685.231	27.99214
94.88638	4682.727	22.74097
94.94048	4685.263	19.54623
94.99459	4682.333	22.39912
