T[Â°C]	330nm [counts / mm]	S.D.
20.00094	3627.469	33.78785
20.05489	3619.702	27.38186
20.10884	3623.544	30.31834
20.16279	3618.415	34.09796
20.21674	3618.127	30.09598
20.27069	3609.129	28.98271
20.32465	3608.934	30.07439
20.3786	3600.065	31.80621
20.43255	3603.672	27.81587
20.4865	3599.909	34.58633
20.54045	3595.294	29.78126
20.5944	3596.228	32.60047
20.64835	3590.223	34.42918
20.7023	3592.318	42.90565
20.75625	3589.65	37.43372
20.8102	3587.609	37.89151
20.86415	3580.733	34.45242
20.9181	3573.249	34.43762
20.97205	3572.097	33.13816
21.026	3572.689	27.70763
21.07995	3565.954	27.23519
21.1339	3569.347	30.97299
21.18785	3565.126	30.79498
21.2418	3560.772	30.25752
21.29575	3554.544	36.80472
21.3497	3551.239	37.03437
21.40366	3546.118	29.74842
21.45761	3551.103	25.28641
21.51156	3543.958	34.55063
21.56551	3545.793	32.49051
21.61946	3547.519	30.75074
21.67341	3543.7	30.3297
21.72736	3534.19	27.9007
21.78131	3534.048	35.92611
21.83526	3527.474	37.5953
21.88921	3527.631	36.13188
21.94316	3524.635	33.67361
21.99711	3524.282	31.38649
22.05106	3524.293	28.12907
22.10501	3520.882	26.44212
22.15896	3509.328	30.6212
22.21291	3512.863	26.81268
22.26686	3508.246	20.9107
22.32081	3506.919	22.49805
22.37476	3505.195	28.35115
22.42871	3506.686	23.57249
22.48266	3502.609	32.32633
22.53662	3495.512	26.93141
22.59057	3484.789	29.40195
22.64452	3485.693	26.48856
22.69847	3488.628	29.27772
22.75242	3483.966	27.87641
22.80637	3480.421	30.36746
22.86032	3481.339	31.64905
22.91427	3482.629	33.71255
22.96822	3480.921	35.5549
23.02217	3473.406	31.56483
23.07612	3465.71	28.54835
23.13007	3457.848	32.0821
23.18402	3457.385	32.09796
23.23797	3459.098	32.41792
23.29192	3457.678	35.09096
23.34587	3453.428	31.93612
23.39982	3450.061	30.28546
23.45377	3447.927	30.95019
23.50772	3444.677	27.64097
23.56167	3442.015	26.01771
23.61563	3438.627	28.78716
23.66958	3434.756	31.16769
23.72353	3437.712	34.46819
23.77748	3441.201	34.68179
23.83143	3433.183	34.92479
23.88538	3427.763	36.81191
23.93933	3424.175	32.49417
23.99328	3423.123	27.69052
24.04723	3418.118	31.5653
24.10118	3415.267	31.60362
24.15513	3416.291	31.66262
24.20908	3413.948	32.66672
24.26303	3411.298	27.52214
24.31698	3405.807	30.1068
24.37093	3404.798	32.21709
24.42488	3403.276	28.98995
24.47883	3398.181	34.50105
24.53278	3393	31.79653
24.58673	3392.957	27.21432
24.64068	3395.344	27.10891
24.69464	3387.351	30.37736
24.74859	3388.698	26.69239
24.80254	3384.713	28.4061
24.85649	3382.462	28.2127
24.91044	3380.556	29.88594
24.96439	3374.726	29.77139
25.01834	3367.853	31.78363
25.07229	3367.701	29.27643
25.12624	3362.607	29.65302
25.18019	3357.945	27.27914
25.23414	3363.809	25.24783
25.28809	3358.733	28.56057
25.34204	3354.937	28.76176
25.39599	3355.75	28.34188
25.44994	3351.472	22.23278
25.50389	3348.718	22.5857
25.55784	3347.323	29.44389
25.61179	3341.5	22.5843
25.66574	3339.378	30.61515
25.71969	3334.169	25.18756
25.77365	3328.9	31.01062
25.8276	3333.711	24.87715
25.88155	3324.814	23.48358
25.9355	3327.158	24.8016
25.98945	3323.209	22.88548
26.0434	3320.749	25.7767
26.09735	3319.377	27.40214
26.1513	3318.062	23.2791
26.20525	3316.616	30.0765
26.2592	3311.993	29.56653
26.31315	3310.16	32.4853
26.3671	3307.575	31.15659
26.42105	3302.266	23.50989
26.475	3300.274	27.69119
26.52895	3298.942	32.09493
26.5829	3295.884	28.16662
26.63685	3291.414	31.5197
26.6908	3287.671	28.54972
26.74475	3284.475	27.49186
26.7987	3286.543	26.69725
26.85266	3284.343	26.68906
26.9066	3280.971	27.69256
26.96056	3279.908	28.9019
27.01451	3276.348	27.59372
27.06846	3275.65	26.88196
27.12241	3273.864	27.5121
27.17636	3265.139	28.41324
27.23031	3263.102	23.3564
27.28426	3264.675	20.99934
27.33821	3263.039	28.319
27.39216	3260.113	28.45856
27.44611	3254.51	28.20067
27.50006	3252.696	27.05101
27.55401	3249.167	28.47505
27.60796	3243.586	31.32096
27.66191	3242.862	28.4376
27.71586	3238.026	28.83159
27.76981	3236.577	29.30724
27.82376	3234.746	33.20219
27.87771	3231.429	29.2727
27.93167	3232.71	22.43753
27.98561	3227.81	21.85783
28.03957	3228.864	18.21377
28.09352	3225.254	23.13773
28.14747	3215.008	24.45583
28.20142	3216.28	30.43701
28.25537	3213.667	30.60717
28.30932	3211.196	28.25201
28.36327	3208.73	26.05653
28.41722	3210.835	26.19179
28.47117	3202.414	24.36895
28.52512	3202.904	26.51181
28.57907	3196.663	32.30346
28.63302	3194.604	25.44511
28.68697	3198.748	24.6178
28.74092	3191.178	22.42519
28.79487	3191.263	19.54569
28.84882	3188.554	24.62581
28.90277	3181.543	25.55765
28.95672	3179.085	28.5063
29.01068	3175.715	25.22166
29.06462	3172.689	25.95217
29.11858	3172.199	26.16442
29.17253	3168.348	26.87808
29.22648	3169.926	23.38691
29.28043	3164.354	24.03744
29.33438	3161.533	26.56565
29.38833	3167.438	25.87374
29.44228	3157.826	24.03957
29.49623	3153.515	22.06237
29.55018	3149.65	28.47846
29.60413	3149.972	23.82414
29.65808	3149.359	24.30379
29.71203	3151.421	21.85776
29.76598	3145.135	26.49144
29.81993	3146.403	31.50853
29.87388	3136.024	29.0932
29.92783	3133.854	25.2895
29.98178	3131.405	27.16991
30.03573	3129.785	22.45621
30.08969	3128.993	25.38387
30.14363	3128.657	29.56052
30.19759	3124.264	26.18639
30.25154	3117.061	25.20389
30.30549	3115.908	27.63606
30.35944	3122.291	29.16173
30.41339	3117.391	22.09536
30.46734	3110.373	19.80439
30.52129	3108.491	20.60894
30.57524	3106.55	21.53504
30.62919	3105.438	23.23868
30.68314	3105.708	26.27908
30.73709	3102.077	26.97435
30.79104	3098.571	27.68529
30.84499	3094.5	30.21772
30.89894	3092.281	30.041
30.95289	3086.958	27.22838
31.00684	3080.601	25.79757
31.06079	3082.438	27.73121
31.11474	3082.05	27.33231
31.1687	3078.232	24.33499
31.22264	3078.602	21.19401
31.2766	3074.829	19.14786
31.33055	3069.439	23.37069
31.3845	3065.651	22.25127
31.43845	3060.713	21.67236
31.4924	3062.067	22.71143
31.54635	3059.754	21.13542
31.6003	3060.667	23.55844
31.65425	3058.151	18.8467
31.7082	3055.498	25.63493
31.76215	3047.174	26.37545
31.8161	3047.868	26.72622
31.87005	3048.164	28.95424
31.924	3042.675	23.338
31.97795	3039.706	26.21929
32.0319	3040.926	20.43165
32.08585	3031.147	22.12449
32.1398	3037.801	23.07408
32.19376	3035.297	19.46902
32.2477	3026.211	20.88661
32.30165	3024.294	19.9786
32.35561	3018.433	19.77971
32.40956	3017.703	20.94012
32.4635	3016.319	19.18737
32.51746	3011.771	24.51605
32.57141	3016.252	20.41702
32.62536	3009.531	23.29861
32.67931	3010.645	24.35329
32.73326	3001.853	26.22316
32.78721	2999.553	21.39887
32.84116	2995.469	25.05519
32.89511	2995.79	21.20814
32.94906	2993.879	25.92543
33.00301	2994.417	18.93082
33.05696	2991.587	31.21099
33.11091	2991.501	25.39889
33.16486	2986.597	22.44489
33.21881	2982.542	20.85527
33.27276	2975.892	23.53708
33.32671	2978.786	26.65008
33.38066	2974.443	26.58058
33.43462	2976.614	23.31082
33.48857	2972.908	23.81933
33.54251	2975.141	27.07179
33.59647	2967.215	26.50743
33.65042	2970.592	27.12044
33.70437	2965.382	26.74266
33.75832	2958.506	23.87851
33.81227	2958.722	18.13607
33.86622	2953.098	25.2452
33.92017	2950.727	27.83517
33.97412	2949.525	26.88437
34.02807	2943.466	28.12473
34.08202	2948.173	26.28958
34.13597	2945.606	24.90198
34.18992	2940.001	28.01229
34.24387	2937.75	26.55683
34.29782	2934.058	24.29849
34.35177	2931.085	24.1739
34.40572	2933.177	25.52813
34.45967	2930.101	28.61604
34.51363	2929.64	24.23304
34.56758	2929.495	22.82493
34.62152	2922.722	24.44616
34.67548	2918.193	24.47409
34.72943	2915.076	24.83023
34.78338	2909.832	21.39612
34.83733	2909.401	20.8599
34.89128	2912.303	24.37432
34.94523	2907.239	26.08096
34.99918	2905.319	23.63915
35.05313	2903.162	21.18542
35.10708	2900.46	24.56895
35.16103	2897.831	26.36207
35.21498	2897.238	25.27439
35.26893	2893.397	27.14482
35.32288	2891.05	18.6869
35.37683	2889.198	20.78168
35.43078	2884.826	24.02479
35.48473	2877.73	23.36811
35.53868	2877.895	25.21349
35.59264	2873.738	17.59136
35.64659	2870.55	19.03112
35.70053	2870.376	22.94762
35.75449	2869.864	20.87955
35.80844	2870.18	22.06113
35.86239	2866.506	25.96467
35.91634	2864.107	24.40619
35.97029	2862.667	22.55117
36.02424	2857.483	19.54061
36.07819	2861.604	21.68626
36.13214	2852.317	17.15236
36.18609	2852.469	19.20764
36.24004	2847.547	21.11551
36.29399	2852.687	22.42153
36.34794	2841.549	26.42675
36.40189	2841.138	26.60807
36.45584	2835.885	24.21375
36.50979	2835.781	19.45866
36.56374	2828.339	23.62764
36.61769	2832.972	22.84042
36.67165	2827.239	22.68424
36.7256	2829.24	26.6325
36.77954	2829.069	28.70145
36.8335	2828.611	27.3753
36.88745	2823.111	25.64438
36.9414	2827.468	22.78824
36.99535	2814.889	19.64876
37.0493	2816.854	21.94833
37.10325	2810.973	26.49063
37.1572	2808.512	22.00938
37.21115	2805.146	24.76994
37.2651	2807.602	21.53514
37.31905	2803.389	22.04371
37.373	2804.793	32.90479
37.42695	2794.815	29.64802
37.4809	2795.148	19.57649
37.53485	2794.242	22.78578
37.5888	2788.466	22.60735
37.64275	2786.291	24.21005
37.6967	2790.372	25.24897
37.75066	2783.429	26.40945
37.80461	2784.067	26.78947
37.85855	2778.972	25.65732
37.91251	2779.911	24.17332
37.96646	2775.151	20.81793
38.02041	2770.643	19.93521
38.07436	2769.438	25.48966
38.12831	2770.589	24.73861
38.18226	2765.211	23.05605
38.23621	2763.226	21.53311
38.29016	2763.053	19.97761
38.34411	2760.379	18.19053
38.39806	2755.078	22.87094
38.45201	2753.091	25.84827
38.50596	2751.369	24.97971
38.55991	2750.522	24.24615
38.61386	2751.274	20.94297
38.66781	2747.656	19.84615
38.72176	2743.876	20.05912
38.77571	2738.359	22.25238
38.82967	2733.388	22.27336
38.88362	2729.717	21.53385
38.93756	2732.829	22.10748
38.99152	2732.702	20.53462
39.04547	2728.87	17.49922
39.09942	2726.67	20.53339
39.15337	2725.675	22.84095
39.20732	2720.598	18.04864
39.26127	2719.959	21.87487
39.31522	2712.208	18.66213
39.36917	2715.077	21.99813
39.42312	2711.983	22.09158
39.47707	2710.446	20.41096
39.53102	2707.764	18.91867
39.58497	2707.485	21.78572
39.63892	2699.16	19.62122
39.69287	2702.627	17.20667
39.74682	2694.2	25.6254
39.80077	2696.425	23.33379
39.85472	2688.313	22.32159
39.90868	2688.509	26.33801
39.96263	2686.788	25.55228
40.01657	2686.09	19.63042
40.07053	2680.327	23.55071
40.12448	2688.517	20.65427
40.17843	2681.589	24.54313
40.23238	2677.994	24.15454
40.28633	2667.538	19.25657
40.34028	2673.287	21.73903
40.39423	2669.241	20.80041
40.44818	2666.983	18.51574
40.50213	2665.118	17.40268
40.55608	2667.397	22.29256
40.61003	2660.754	25.16231
40.66398	2662.606	24.05172
40.71793	2657.777	23.54866
40.77188	2655.405	18.16184
40.82583	2652.261	22.73739
40.87978	2648.001	21.55079
40.93373	2648.68	26.89885
40.98769	2650.381	24.09944
41.04163	2640.077	22.86623
41.09558	2647.213	18.954
41.14954	2638.279	23.49802
41.20349	2639.237	19.28964
41.25744	2633.279	15.43624
41.31139	2629.807	18.26519
41.36534	2625.345	19.82197
41.41929	2633.14	18.23827
41.47324	2628.29	17.72874
41.52719	2629.411	19.6195
41.58114	2622.099	21.85915
41.63509	2618.896	17.07292
41.68904	2615.429	21.49727
41.74299	2615.319	20.31499
41.79694	2614.835	18.32689
41.85089	2613.927	13.9732
41.90484	2609.248	15.63092
41.95879	2607.22	20.84306
42.01274	2602.554	18.14393
42.0667	2598.657	18.86956
42.12064	2597.119	17.79428
42.17459	2593.845	13.6532
42.22855	2590.724	16.48142
42.2825	2590.899	16.28396
42.33645	2591.908	15.29713
42.3904	2588.705	20.32749
42.44435	2586.78	20.63935
42.4983	2584.249	22.30607
42.55225	2582.45	20.65339
42.6062	2579.549	19.42635
42.66015	2579.096	19.44909
42.7141	2573.721	21.20432
42.76805	2574.664	21.13476
42.822	2572.743	21.91516
42.87595	2574.032	20.00692
42.9299	2566.415	22.51829
42.98385	2565.973	22.0441
43.0378	2557.411	25.97417
43.09175	2559.966	21.06212
43.14571	2553.884	18.19752
43.19965	2558.42	18.93716
43.2536	2550.929	23.02552
43.30756	2551.689	25.35531
43.36151	2548.954	24.29181
43.41546	2551.462	19.75986
43.46941	2545.22	19.71084
43.52336	2544.663	21.31591
43.57731	2535.996	25.7276
43.63126	2541.459	22.39428
43.68521	2537.817	21.52057
43.73916	2532.749	20.64324
43.79311	2535.931	23.16449
43.84706	2537.4	20.22195
43.90101	2525.728	23.47871
43.95496	2527.86	22.19898
44.00891	2520.267	28.38426
44.06286	2522.599	19.66246
44.11681	2513.771	21.10051
44.17076	2514.135	21.82567
44.22472	2510.412	22.6242
44.27866	2515.739	25.22417
44.33261	2510.762	24.37119
44.38657	2514.13	18.68211
44.44052	2504.073	17.30256
44.49447	2502.355	20.82671
44.54842	2497.372	19.25201
44.60237	2498.34	22.83864
44.65632	2493.464	20.26652
44.71027	2494.432	18.9523
44.76422	2486.89	17.89655
44.81817	2493.834	19.46162
44.87212	2488.946	18.33802
44.92607	2490.177	20.17246
44.98002	2483.369	22.09733
45.03397	2483.255	21.58285
45.08792	2482.285	21.71512
45.14187	2483.393	19.67713
45.19582	2477.368	18.2951
45.24977	2477.697	23.47747
45.30373	2469.734	19.82367
45.35767	2464.252	17.31465
45.41162	2463.449	21.39544
45.46558	2464.685	19.04465
45.51953	2462.205	17.02681
45.57348	2460.919	17.83791
45.62743	2459.301	18.93526
45.68138	2457.716	22.27956
45.73533	2454.01	22.62127
45.78928	2450.9	21.1926
45.84323	2448.51	20.27428
45.89718	2445.302	21.7211
45.95113	2445.227	23.65341
46.00508	2439.366	18.51379
46.05903	2437.847	17.46898
46.11298	2438.338	20.84513
46.16693	2438.812	19.81482
46.22088	2433.474	19.80103
46.27483	2431.977	20.57536
46.32878	2427.373	17.54339
46.38274	2430.639	20.42845
46.43668	2423.604	25.41016
46.49063	2424.606	19.35839
46.54459	2422.842	21.07805
46.59854	2422.522	21.05142
46.65249	2416.773	25.15584
46.70644	2421.14	24.67737
46.76039	2413.96	22.50902
46.81434	2415.971	20.96247
46.86829	2408.719	20.67859
46.92224	2411.207	18.76521
46.97619	2399.474	21.63516
47.03014	2407.263	15.10642
47.08409	2396.976	18.14348
47.13804	2397.744	17.657
47.19199	2391.442	19.24055
47.24594	2398.491	18.71231
47.29989	2387.504	21.38787
47.35384	2393.048	23.15617
47.40779	2385.648	21.02377
47.46175	2387.858	18.8294
47.51569	2384.408	22.69772
47.56964	2387.887	17.06726
47.6236	2379.075	18.46761
47.67755	2384.467	16.676
47.7315	2375.151	19.22703
47.78545	2375.042	20.70903
47.8394	2369.249	20.29037
47.89335	2368.112	16.11507
47.9473	2362.068	22.11688
48.00125	2366.727	18.84536
48.0552	2362.522	19.18992
48.10915	2363.677	19.5067
48.1631	2356.102	18.48262
48.21705	2357.838	19.18879
48.271	2354.485	16.93913
48.32495	2357.132	19.77672
48.3789	2352.643	18.66918
48.43285	2353.465	20.91816
48.4868	2345.23	18.77176
48.54076	2349.977	18.12874
48.5947	2343.868	15.25348
48.64865	2343.499	20.63798
48.70261	2334.914	21.06681
48.75656	2334.634	15.10027
48.8105	2330.678	13.87186
48.86446	2331.191	16.56558
48.91841	2330.609	18.6898
48.97236	2326.985	17.59509
49.02631	2323.934	15.55236
49.08026	2327.53	18.65707
49.13421	2323.885	18.15314
49.18816	2318.052	19.61365
49.24211	2316.023	20.28053
49.29606	2313.866	18.59895
49.35001	2307.901	18.52841
49.40396	2307.15	16.88221
49.45791	2311.056	17.02927
49.51186	2307.651	19.03574
49.56581	2302.045	20.78263
49.61976	2302.86	22.50677
49.67371	2303.039	19.56503
49.72766	2295.636	16.78383
49.78162	2294.428	17.15654
49.83557	2290.414	18.14244
49.88951	2290.124	18.358
49.94347	2286.461	20.6592
49.99742	2288.764	22.21949
50.05137	2283.339	21.18868
50.10532	2287.63	20.41372
50.15927	2283.297	21.02258
50.21322	2284.617	16.73967
50.26717	2275.238	16.30652
50.32112	2278.448	20.73948
50.37507	2269.515	20.02741
50.42902	2271.219	17.22869
50.48297	2264.862	17.62008
50.53692	2271.108	16.7241
50.59087	2263.523	21.18734
50.64482	2261.226	19.72773
50.69877	2260.778	24.85077
50.75272	2263.864	21.5956
50.80667	2252.712	21.1908
50.86063	2257.355	16.70469
50.91458	2248.052	21.0392
50.96852	2248.268	24.35989
51.02248	2245.452	20.57825
51.07643	2248.884	18.90472
51.13038	2242.677	15.36769
51.18433	2249.609	21.54895
51.23828	2239.131	21.77627
51.29223	2244.311	19.6616
51.34618	2231.618	16.89572
51.40013	2232.828	18.22881
51.45408	2230.833	21.46999
51.50803	2235.275	16.62062
51.56198	2227.31	17.93053
51.61593	2235.352	13.80784
51.66988	2224.508	17.71551
51.72383	2229.156	19.68075
51.77778	2221.243	19.26722
51.83173	2222.419	16.65005
51.88568	2216.196	15.44239
51.93964	2216.829	12.40563
51.99359	2209.999	18.72481
52.04753	2214.268	18.4158
52.10149	2210.928	15.64245
52.15544	2213.03	13.96573
52.20939	2203.154	17.91709
52.26334	2199.419	16.64076
52.31729	2199.31	18.0835
52.37124	2200.401	17.69651
52.42519	2195.194	16.87214
52.47914	2195.083	16.0923
52.53309	2191.178	17.22733
52.58704	2192.896	17.98349
52.64099	2188.148	18.7465
52.69494	2186.875	21.01576
52.74889	2185.532	19.75681
52.80285	2183.747	16.71264
52.85679	2180.49	17.65063
52.91074	2177.795	17.73437
52.96469	2175.27	16.79038
53.01865	2174.039	17.61361
53.0726	2171.961	20.56153
53.12654	2170.845	21.19233
53.1805	2169.88	19.38439
53.23445	2165.593	20.08496
53.2884	2165.692	19.00205
53.34235	2164.15	17.11298
53.3963	2162.008	19.19918
53.45025	2158.122	19.84341
53.5042	2158.741	20.95656
53.55815	2155.07	21.608
53.6121	2156.72	21.31277
53.66605	2152.888	21.34114
53.72	2154.244	18.33883
53.77395	2149.195	21.21318
53.8279	2146.503	16.29333
53.88186	2137.668	16.42723
53.9358	2141.608	17.08941
53.98975	2134.603	17.05423
54.0437	2137.865	18.73162
54.09766	2133.198	18.3762
54.15161	2135.047	18.08467
54.20555	2126.553	19.37645
54.25951	2133.531	16.40726
54.31346	2122.415	17.36774
54.36741	2126.085	20.17995
54.42136	2120.132	18.17005
54.47531	2122.825	20.74419
54.52926	2114.188	23.48673
54.58321	2118.924	19.00066
54.63716	2112.988	19.56346
54.69111	2117.724	18.92043
54.74506	2110.97	20.05133
54.79901	2113.238	19.73905
54.85296	2103.563	18.86766
54.90691	2105.141	18.63825
54.96087	2095.363	17.30228
55.01481	2105.57	16.25205
55.06876	2100.947	14.7266
55.12271	2101.703	11.96772
55.17667	2097.608	14.93595
55.23062	2100.031	14.14257
55.28456	2090.765	16.38334
55.33852	2092.481	15.39593
55.39247	2087.436	12.78558
55.44642	2091.16	16.647
55.50037	2083.313	12.95052
55.55432	2087.616	14.20217
55.60827	2077.338	16.2557
55.66222	2079.532	13.47956
55.71617	2071.328	14.31432
55.77012	2072.022	13.68356
55.82407	2066.689	13.76637
55.87802	2071.346	15.96981
55.93197	2068.036	16.53567
55.98592	2068.393	13.89171
56.03988	2065.636	18.03532
56.09382	2067.416	17.0008
56.14777	2061.983	16.38865
56.20173	2056.646	18.8166
56.25568	2053.044	19.09196
56.30963	2053.492	15.46154
56.36357	2048.945	13.22955
56.41753	2048.983	12.16905
56.47148	2047.14	13.62712
56.52543	2046.129	14.48664
56.57938	2047.66	16.2802
56.63333	2043.803	20.29389
56.68728	2041.472	18.16254
56.74123	2035.489	16.71772
56.79518	2035.499	15.61964
56.84913	2031.101	16.98446
56.90308	2028.28	18.90225
56.95703	2026.157	14.53248
57.01098	2031.009	16.59245
57.06493	2027.059	21.22446
57.11888	2025.717	15.97456
57.17283	2018.607	15.56559
57.22678	2022.829	20.11338
57.28074	2014.484	18.588
57.33469	2018.099	15.48452
57.38863	2009.999	17.30065
57.44258	2013.863	15.34377
57.49654	2011.422	15.18403
57.55049	2012.393	15.63115
57.60444	2002.231	17.05651
57.65839	2007.046	17.82951
57.71234	1997.965	25.32162
57.76629	2006.257	17.45325
57.82024	1998.543	18.47826
57.87419	2001.598	17.1421
57.92814	1992.892	16.0169
57.98209	1995.467	14.13794
58.03604	1991.087	15.14354
58.08999	1992.886	14.52887
58.14394	1986.466	16.07397
58.19789	1992.358	15.43856
58.25184	1978.449	15.18983
58.30579	1983.49	16.44909
58.35975	1976.672	17.86293
58.4137	1978.471	15.65857
58.46764	1971.906	15.8628
58.5216	1979.562	15.86921
58.57555	1973.765	16.35793
58.6295	1977.184	15.87751
58.68345	1967.45	17.37507
58.7374	1969.01	15.1681
58.79135	1962.408	16.42594
58.8453	1963.979	15.84724
58.89925	1957.398	16.38409
58.9532	1960.811	15.5052
59.00715	1954.422	14.50941
59.0611	1959.421	11.35363
59.11505	1953.371	12.03716
59.169	1953.504	12.13649
59.22295	1946.345	16.05385
59.2769	1943.694	14.73962
59.33085	1943.227	11.38458
59.3848	1942.85	10.36479
59.43876	1940.747	11.05065
59.49271	1937.428	12.61246
59.54665	1936.141	13.76914
59.60061	1937.908	13.01357
59.65456	1936.516	15.59878
59.70851	1933.47	18.34247
59.76246	1930.756	16.6252
59.81641	1924.076	15.16304
59.87036	1923.93	17.05547
59.92431	1921.603	14.98182
59.97826	1924.553	12.79136
60.03221	1918.639	15.48454
60.08616	1919.933	15.05664
60.14011	1913.84	14.55762
60.19406	1917.793	15.98517
60.24801	1909.795	13.82997
60.30196	1915.303	14.65804
60.35591	1908.684	15.65294
60.40986	1908.009	15.72902
60.46381	1900.202	17.06965
60.51777	1905.485	16.11615
60.57172	1898.127	12.18885
60.62566	1906.808	15.19468
60.67962	1898.261	21.42089
60.73357	1901.692	17.01069
60.78752	1891.688	19.29514
60.84147	1899.013	16.74513
60.89542	1884.407	20.76984
60.94937	1894.956	17.6001
61.00332	1884.2	15.67459
61.05727	1888.756	12.58699
61.11122	1881.611	15.52265
61.16517	1887.945	13.31763
61.21912	1878.106	15.33399
61.27307	1882.05	15.15922
61.32702	1872.878	18.47583
61.38097	1877.731	15.02135
61.43492	1869.93	15.54526
61.48887	1872.016	14.85455
61.54282	1866.054	14.45637
61.59678	1869.414	11.5219
61.65073	1865.246	17.10397
61.70467	1869.492	20.51649
61.75863	1862.641	18.59836
61.81258	1867.747	14.87276
61.86653	1858.294	15.74746
61.92048	1863.818	13.68551
61.97443	1856.719	13.02324
62.02838	1853.932	13.01863
62.08233	1850.067	14.25587
62.13628	1850.225	15.16167
62.19023	1845.675	16.23375
62.24418	1848.374	15.12183
62.29813	1843.52	13.32141
62.35208	1846.603	15.64075
62.40603	1843.263	15.63717
62.45998	1841.484	15.65867
62.51393	1838.239	16.92
62.56788	1836.16	13.44493
62.62183	1836.438	12.51734
62.67579	1832.804	14.52473
62.72974	1828.667	13.58195
62.78368	1823.054	14.83625
62.83764	1826.817	11.6114
62.89159	1825.048	14.7279
62.94554	1826.213	14.65687
62.99949	1820.222	11.71593
63.05344	1818.495	14.13683
63.10739	1815.966	8.938396
63.16134	1818.448	11.29568
63.21529	1814.363	11.8621
63.26924	1814.073	10.56445
63.32319	1807.727	11.97495
63.37714	1812.18	11.84802
63.43109	1804.27	14.35098
63.48504	1808.478	16.09027
63.53899	1800.173	11.2683
63.59294	1806.699	12.87312
63.64689	1797.577	14.50936
63.70084	1804.109	12.56653
63.7548	1794.647	14.28081
63.80875	1801.608	10.37971
63.86269	1790.495	15.666
63.91665	1795.904	15.00026
63.9706	1789.02	12.93052
64.02454	1793.747	14.87584
64.0785	1786.012	10.81453
64.13245	1791.305	9.53641
64.1864	1785.509	12.44926
64.24035	1787.918	14.98133
64.2943	1782.04	16.09501
64.34825	1789.231	14.32819
64.4022	1781.686	11.33506
64.45615	1787.017	10.84153
64.5101	1779.966	14.64836
64.56405	1788.159	14.96751
64.618	1773.428	13.13812
64.67195	1780.681	15.15699
64.72591	1773.934	15.27549
64.77985	1773.774	12.45083
64.8338	1767.361	13.47254
64.88776	1774.379	14.34393
64.9417	1770.362	13.42279
64.99566	1775.179	11.76147
65.04961	1769.136	14.46968
65.10355	1768.156	13.58
65.15751	1764.417	14.56654
65.21146	1766.344	15.0076
65.26541	1761.903	15.17248
65.31936	1761.018	14.9789
65.37331	1759.649	16.49748
65.42726	1761.729	15.58079
65.48121	1760.575	13.32756
65.53516	1761.828	12.26458
65.58911	1761.141	13.9104
65.64306	1763.277	13.57471
65.69701	1760.763	13.67567
65.75096	1757.193	13.43376
65.80492	1756.771	13.01305
65.85886	1754.476	14.67633
65.91281	1755.172	11.97453
65.96677	1753.233	10.73996
66.02071	1756.753	13.05867
66.07467	1752.838	16.88098
66.12862	1755.627	13.1215
66.18256	1752.404	11.16005
66.23652	1756.208	12.33953
66.29047	1751.649	13.06901
66.34442	1756.9	15.36541
66.39837	1750.062	17.74253
66.45232	1758.447	12.8705
66.50627	1754.829	9.535464
66.56022	1757.242	10.92256
66.61417	1749.33	13.42097
66.66812	1758.889	10.52782
66.72207	1754.329	12.60532
66.77602	1762.563	13.1541
66.82997	1755.018	11.16586
66.88393	1763.576	15.19836
66.93787	1756.933	13.91292
66.99182	1761.383	11.74948
67.04578	1759.625	14.46608
67.09972	1766.763	11.10134
67.15368	1761.434	12.36794
67.20763	1773.413	13.56361
67.26157	1765.246	19.22072
67.31553	1773.311	11.52427
67.36948	1768.896	14.10594
67.42343	1776.224	18.47055
67.47738	1772.117	18.62769
67.53133	1784.558	12.13842
67.58528	1778.687	16.96673
67.63923	1789.569	7.704834
67.69318	1786.173	9.118449
67.74713	1796.029	10.45327
67.80108	1791.2	13.44396
67.85503	1804.456	13.53876
67.90898	1795.671	14.67766
67.96294	1808.566	18.02396
68.01688	1804.505	17.74434
68.07083	1813.343	13.71455
68.12479	1811.22	16.26519
68.17873	1826.321	15.86572
68.23269	1823.878	17.00618
68.28664	1834.386	12.55942
68.34058	1836.467	16.79946
68.39454	1848.33	21.37881
68.44849	1849.582	18.61968
68.50244	1860.984	16.79714
68.55639	1861.693	19.71094
68.61034	1870.471	18.50341
68.66429	1871.725	16.15795
68.71824	1880.604	17.43944
68.77219	1886.284	19.74153
68.82614	1895.427	17.66116
68.88009	1902.988	17.89382
68.93404	1910.444	16.89253
68.98799	1915.568	15.41964
69.04195	1923.107	16.26034
69.09589	1933.912	16.2586
69.14984	1942.198	18.65989
69.2038	1952.355	19.08236
69.25774	1959.186	17.04953
69.31169	1971.907	18.60025
69.36565	1980.965	17.62515
69.41959	1995.156	15.41626
69.47355	2001.192	19.79733
69.5275	2013.79	21.07343
69.58144	2022.902	17.81569
69.6354	2039.835	14.36002
69.68935	2044.207	17.21913
69.7433	2062.02	18.90444
69.79725	2069.837	20.83036
69.8512	2089.958	16.34486
69.90515	2095.058	17.79465
69.9591	2116.362	20.43454
70.01305	2120.274	19.34209
70.067	2141.969	19.30131
70.12095	2146.657	23.17007
70.1749	2171.397	20.32267
70.22885	2179.484	21.55053
70.28281	2206.956	19.24062
70.33675	2207.635	22.2275
70.3907	2238.05	18.95747
70.44466	2237.315	25.57631
70.4986	2274.048	26.49453
70.55256	2274.812	28.29058
70.60651	2308.069	25.90309
70.66045	2313.733	27.67696
70.71441	2347.492	29.57106
70.76836	2349.974	29.71577
70.82231	2383.46	22.77519
70.87626	2388.815	25.33735
70.93021	2427.271	26.77608
70.98416	2429.542	28.29718
71.03811	2462.266	28.42233
71.09206	2470.667	25.4385
71.14601	2509.002	30.65237
71.19996	2511.626	30.61754
71.25391	2546.08	30.81256
71.30786	2558.961	29.61043
71.36182	2592.305	23.1609
71.41576	2604.638	28.8238
71.46971	2642.214	27.76935
71.52367	2649.652	33.68153
71.57761	2687.303	38.56139
71.63157	2700.975	39.05048
71.68552	2732.588	31.84177
71.73946	2750.415	31.902
71.79342	2781.287	31.13854
71.84737	2801.293	34.15239
71.90132	2837.153	34.9625
71.95527	2860.7	33.15746
72.00922	2886.581	32.26918
72.06317	2909.933	34.38002
72.11712	2933.631	35.05066
72.17107	2964.209	34.34277
72.22502	2989.312	36.85802
72.27897	3023.47	41.7108
72.33292	3041.563	42.87571
72.38687	3077.667	40.59953
72.44083	3099.72	41.14205
72.49477	3134.486	40.4818
72.54872	3154.217	37.12365
72.60268	3186.742	37.82346
72.65662	3198.529	35.50536
72.71058	3234.245	36.03151
72.76453	3251.388	35.72129
72.81847	3284.654	37.55336
72.87243	3294.067	35.10521
72.92638	3334.055	34.23105
72.98033	3337.914	38.9236
73.03428	3374.037	35.58825
73.08823	3376.062	29.15636
73.14218	3410.018	31.31727
73.19613	3408.775	35.81715
73.25008	3450.422	34.08624
73.30403	3446.069	39.24019
73.35798	3483.296	31.73601
73.41193	3476.313	31.65621
73.46588	3507.154	31.55468
73.51984	3495.14	37.44582
73.57378	3538.116	32.79853
73.62773	3524.599	36.11145
73.68169	3553.64	32.23328
73.73563	3545.571	31.74667
73.78959	3582.858	26.52935
73.84354	3575.357	24.25542
73.89748	3600.62	27.09276
73.95144	3587.859	29.46067
74.00539	3620.823	22.28461
74.05934	3609.79	26.6963
74.11329	3638.545	36.23274
74.16724	3624.799	37.46115
74.22119	3643.785	29.69695
74.27514	3638.442	32.66706
74.32909	3651.857	31.94962
74.38304	3649.537	31.68646
74.43699	3661.78	24.73142
74.49094	3660.127	24.24708
74.54489	3674.558	27.42244
74.59885	3672.672	28.08718
74.65279	3682.089	28.32027
74.70674	3681.625	28.17632
74.7607	3682.351	27.44153
74.81464	3694.611	26.81173
74.8686	3698.825	25.25072
74.92255	3703.246	26.15556
74.97649	3696.349	28.86851
75.03045	3711.057	23.66215
75.0844	3708.109	22.41842
75.13835	3724.839	21.23917
75.1923	3712.694	21.99385
75.24625	3732.399	27.26095
75.3002	3717.881	28.31298
75.35415	3738.856	26.33585
75.4081	3719.245	34.60208
75.46205	3743.285	22.49398
75.516	3729.564	28.89177
75.56995	3757.392	18.8715
75.6239	3732.453	31.23852
75.67786	3756.406	20.64258
75.7318	3740.887	31.97722
75.78575	3773.682	25.26181
75.83971	3752.864	31.8528
75.89365	3778.545	22.7008
75.94761	3757.337	33.90575
76.00156	3781.763	33.57904
76.0555	3764.498	36.28187
76.10946	3789.873	28.34928
76.16341	3769.661	31.5855
76.21736	3789.285	22.61929
76.27131	3776.054	26.01745
76.32526	3793.143	24.52907
76.37921	3778.61	28.55474
76.43316	3794.147	30.40919
76.48711	3789.15	29.35275
76.54106	3792.634	28.97721
76.59501	3789.603	29.70241
76.64896	3793.92	27.91814
76.70291	3795.821	28.42699
76.75687	3796.858	31.14038
76.81081	3807.354	29.53044
76.86476	3795.504	26.76325
76.91872	3801.215	26.6223
76.97266	3794.636	25.81622
77.02662	3812.007	26.89178
77.08057	3798.338	31.14332
77.13451	3820.263	25.48614
77.18847	3794.345	25.41556
77.24242	3830.256	24.41965
77.29637	3806.694	34.40918
77.35032	3833.277	30.95926
77.40427	3809.304	38.6969
77.45822	3837.283	30.36347
77.51217	3812.155	29.61182
77.56612	3839.719	24.40797
77.62007	3817.397	29.48711
77.67402	3840.508	32.34002
77.72797	3821.334	31.3387
77.78192	3847.243	21.96334
77.83588	3825.815	27.79357
77.88982	3842.931	26.5978
77.94377	3823.983	27.39522
77.99773	3846.086	23.4215
78.05167	3831.267	29.56422
78.10563	3846.399	33.69151
78.15958	3833.634	33.62161
78.21352	3836.357	30.36262
78.26748	3832.802	31.8749
78.32143	3830.936	32.61456
78.37538	3832.751	31.62844
78.42933	3834.92	32.03694
78.48328	3840.922	29.98111
78.53723	3831.21	27.29085
78.59118	3841.488	20.67188
78.64513	3835.458	24.15987
78.69908	3845.907	23.25692
78.75303	3826.393	20.99793
78.80698	3847.033	17.00986
78.86093	3826.679	24.57565
78.91489	3841.798	16.43862
78.96883	3822.362	21.27068
79.02278	3840.091	17.05504
79.07674	3814.355	28.56598
79.13068	3844.07	12.97679
79.18464	3823.256	14.58713
79.23859	3850.404	11.98861
79.29253	3817.52	18.68026
79.34649	3839.901	8.480497
79.40044	3816.91	12.56892
79.45439	3851.724	10.17532
79.50834	3824.39	13.827
79.56229	3841.55	8.18047
79.61624	3816.449	15.90802
79.67019	3845.097	8.950681
79.72414	3821.599	14.32755
79.77809	3846.593	15.95935
79.83204	3827.447	21.14883
79.88599	3844.811	13.63118
79.93994	3829.843	16.58754
79.9939	3845.916	11.94495
80.04784	3831.137	10.79054
80.10179	3839.703	11.77675
80.15575	3827.846	17.90662
80.20969	3841.259	18.71807
80.26365	3831.527	12.06488
80.3176	3829.828	10.48922
80.37154	3830.072	15.58085
80.4255	3827.488	13.9797
80.47945	3831.593	13.19299
80.5334	3824.288	17.36168
80.58735	3833.84	18.52157
80.6413	3827.462	15.75431
80.69525	3832.314	12.05842
80.7492	3823.961	16.2595
80.80315	3836.719	18.04814
80.8571	3814.571	23.35853
80.91105	3841.014	10.66654
80.965	3819.909	22.3204
81.01895	3839.402	5.521739
81.07291	3818.504	18.17307
81.12685	3849.414	15.04219
81.1808	3830.842	19.99117
81.23476	3846.181	19.15624
81.2887	3818.918	22.78678
81.34266	3853.292	19.34724
81.39661	3826.08	27.75888
81.45055	3847.133	19.30771
81.50451	3823.45	23.29551
81.55846	3853.831	10.51498
81.61241	3821.803	20.80879
81.66636	3855.459	10.381
81.72031	3831.958	16.7863
81.77426	3858.089	15.64497
81.82821	3831.292	16.95189
81.88216	3863.097	12.67088
81.93611	3839.892	19.56941
81.99006	3857.139	24.45029
82.04401	3833.885	23.45636
82.09796	3852.546	19.06568
82.15192	3839.944	24.77121
82.20586	3857.385	21.21026
82.25981	3842.467	21.67615
82.31377	3852.166	14.9914
82.36771	3848.655	21.64923
82.42167	3856.689	24.36389
82.47562	3853.797	21.08016
82.52956	3853.46	19.32868
82.58352	3855.217	18.07549
82.63747	3857.057	20.76229
82.69142	3856.261	21.59859
82.74537	3852.918	19.54442
82.79932	3854.561	19.89187
82.85327	3845.003	18.12822
82.90722	3852.903	14.54895
82.96117	3838.315	20.21279
83.01512	3857.955	19.75288
83.06907	3841.975	24.21059
83.12302	3859.405	18.22308
83.17697	3839.723	23.53102
83.23093	3859.863	13.66881
83.28487	3844.754	19.6065
83.33882	3867.311	16.8016
83.39278	3839.248	22.85182
83.44672	3866.272	13.21742
83.50068	3838.85	14.41829
83.55463	3865.577	19.10013
83.60857	3841.039	26.66778
83.66253	3869.305	16.9875
83.71648	3842.458	21.77186
83.77043	3867.67	14.15289
83.82438	3843.281	20.64335
83.87833	3874.562	10.48057
83.93228	3844.731	21.53549
83.98623	3878.067	8.59584
84.04018	3848.466	17.03264
84.09413	3869.477	14.47358
84.14808	3842.924	21.86009
84.20203	3872.048	11.7321
84.25598	3845.46	20.87774
84.30994	3871.816	18.98372
84.36388	3844.583	23.01712
84.41783	3859.125	19.02465
84.47179	3845.223	19.84739
84.52573	3863.868	8.97119
84.57969	3843.926	15.97113
84.63364	3858.831	20.80642
84.68758	3845.145	20.94619
84.74154	3852.365	18.23228
84.79549	3842.364	19.24898
84.84944	3849.931	14.78198
84.90339	3842.876	13.8389
84.95734	3836.506	15.5448
85.01129	3843.313	18.60503
85.06524	3837.936	19.39278
85.11919	3847.724	12.6543
85.17314	3838.986	15.18167
85.22709	3840.915	17.64242
85.28104	3829.138	19.48517
85.33499	3838.875	14.39848
85.38895	3823.899	15.05956
85.44289	3835.667	18.77645
85.49684	3816.115	18.51821
85.5508	3828.874	13.58278
85.60474	3806.429	16.71839
85.65869	3821.603	14.00161
85.71265	3799.662	19.33643
85.76659	3822.776	9.074947
85.82055	3794.598	23.35641
85.8745	3817.285	13.00332
85.92844	3794.705	15.96898
85.9824	3813.586	14.06868
86.03635	3779.284	22.48559
86.0903	3812.798	11.46757
86.14425	3782.618	21.04998
86.1982	3807.739	16.05099
86.25215	3770.652	17.42333
86.3061	3801.499	15.48693
86.36005	3775.11	17.13965
86.414	3799.366	7.614901
86.46795	3772.751	13.64125
86.5219	3788.022	10.52232
86.57585	3762.839	21.01237
86.62981	3788.37	19.58788
86.68375	3760.93	22.2555
86.7377	3790.025	9.957095
86.79166	3750.507	17.7929
86.8456	3774.892	16.30843
86.89956	3743.658	20.72281
86.95351	3765.646	21.55894
87.00745	3737.635	24.22221
87.06141	3757.814	16.61124
87.11536	3734.094	20.39134
87.16931	3746.007	22.39856
87.22326	3726.793	16.78827
87.27721	3745.138	24.26304
87.33116	3727.259	22.59213
87.38511	3735.941	19.82017
87.43906	3718.672	21.11751
87.49301	3726.406	20.72031
87.54696	3707.131	20.50764
87.60091	3714.483	15.69932
87.65486	3700.466	16.60568
87.70882	3707.165	21.9896
87.76276	3696.575	21.30647
87.81671	3700.737	14.09271
87.87067	3692.978	12.19491
87.92461	3684.974	14.28341
87.97857	3680.871	14.16888
88.03252	3677.811	15.38453
88.08646	3678.145	17.17441
88.14042	3671.656	16.11119
88.19437	3669.633	13.60969
88.24832	3661.095	11.24042
88.30227	3668.268	10.77928
88.35622	3652.611	15.93783
88.41017	3657.49	13.75074
88.46412	3644.132	12.52372
88.51807	3652.233	12.23862
88.57202	3632.188	15.51514
88.62597	3644.722	15.28371
88.67992	3620.584	11.45582
88.73387	3639.312	14.99817
88.78783	3617.649	16.58476
88.84177	3637.312	12.96358
88.89572	3611.099	17.89015
88.94968	3626.49	14.50453
89.00362	3588.392	21.07098
89.05758	3622.139	13.45685
89.11153	3589.493	17.66905
89.16547	3603.864	13.27513
89.21943	3574.782	11.15104
89.27338	3599.019	16.43958
89.32733	3568.66	21.94991
89.38128	3597.499	14.51798
89.43523	3565.677	14.60515
89.48918	3586.742	18.50574
89.54313	3551.237	21.13342
89.59708	3588.597	21.23367
89.65103	3547.505	17.20354
89.70498	3576.492	13.13084
89.75893	3539.877	19.84267
89.81288	3571.398	19.00104
89.86684	3536.063	21.70594
89.92078	3556.314	14.3201
89.97473	3529.656	18.30969
90.02869	3551.596	20.99992
90.08263	3518.763	20.12935
90.13659	3547.156	15.92744
90.19054	3516.571	12.70073
90.24448	3540.665	16.79065
90.29844	3503.39	16.61817
90.35239	3538.553	15.38116
90.40634	3503.826	12.73921
90.46029	3514.217	5.916067
90.51424	3490.563	12.15555
90.56819	3499.116	14.49464
90.62214	3480.087	11.71586
90.67609	3495.815	14.08447
90.73004	3472.93	18.84447
90.78399	3491.019	13.61106
90.83794	3472.125	11.19719
90.89189	3476.622	10.72979
90.94585	3457.104	13.01617
90.99979	3466.782	11.9588
91.05374	3449.749	14.00178
91.1077	3458.672	11.63226
91.16164	3443.564	11.97196
91.2156	3447.491	7.016646
91.26955	3432.978	10.92918
91.32349	3438.083	17.58576
91.37745	3431.549	16.95416
91.4314	3426.428	16.17076
91.48535	3425.147	15.47057
91.5393	3421.276	13.05056
91.59325	3415.513	14.12595
91.6472	3405.898	17.00996
91.70115	3408.91	17.7246
91.7551	3398.843	17.05548
91.80905	3399.504	15.51306
91.863	3384.812	17.38804
91.91695	3396.915	18.56461
91.9709	3373.934	22.99266
92.02486	3383.377	20.12233
92.0788	3363.794	19.82078
92.13275	3375.069	18.32427
92.18671	3347.798	17.59829
92.24065	3366.24	23.14443
92.29461	3344.822	20.51546
92.34856	3361.427	19.7004
92.4025	3336.511	19.89957
92.45646	3361.6	16.95403
92.51041	3342.2	15.61127
92.56436	3357.261	19.63572
92.61831	3320.361	16.57416
92.67226	3342.688	15.07557
92.72621	3306.034	17.64053
92.78016	3331.076	14.11229
92.83411	3296.412	18.73093
92.88806	3320.025	20.99021
92.94201	3288.131	11.94949
92.99596	3312.686	16.25222
93.04991	3277.83	17.11522
93.10387	3303.045	17.77997
93.15781	3270.11	16.2035
93.21176	3301.388	19.21878
93.26572	3264.649	13.71058
93.31966	3297.452	23.14705
93.37362	3261.976	15.21808
93.42757	3282.526	15.28106
93.48151	3250.781	16.30253
93.53547	3273.471	17.68328
93.58942	3248.123	15.95129
93.64337	3273.585	18.59236
93.69732	3235.43	15.40266
93.75127	3260.095	15.42591
93.80522	3229.343	14.41239
93.85917	3248.971	11.94288
93.91312	3219.727	13.16185
93.96707	3238.578	9.290128
94.02102	3209.997	8.681871
94.07497	3229.321	12.28496
94.12892	3205.035	12.36061
94.18288	3222.448	16.97789
94.23682	3189.582	11.65773
94.29077	3207.703	15.17039
94.34473	3179.334	16.06194
94.39867	3195.693	17.40216
94.45263	3183.944	14.81862
94.50658	3173.136	12.14534
94.56052	3185.333	14.80864
94.61448	3171.78	13.27619
94.66843	3159.464	11.2498
94.72238	3168.622	16.82706
94.77633	3168.291	12.31915
94.83028	3169.961	20.91057
94.88423	3154.958	15.54568
94.93818	3134.84	14.66666
94.99213	3119.607	11.07871
